414	20.537
414.5	20.233
415	20.072
415.5	20.036
416	20.107
416.5	20.268
417	20.5
417.5	20.787
418	21.11
418.5	21.455
419	21.813
419.5	22.144
420	22.479
420.5	22.78
421	23.012
421.5	23.106
422	23.007
422.5	22.671
423	22.085
423.5	21.243
424	20.151
424.5	18.818
425	17.255
425.5	15.504
426	13.613
426.5	11.665
427	9.7442
427.5	7.921
428	6.2355
428.5	4.7081
429	3.3384
429.5	2.1285
430	1.0892
430.5	0.23441
431	0
431.5	0
432	0
432.5	0
433	0
433.5	0
434	0
434.5	0.22652
435	0.69714
435.5	1.1308
436	1.507
436.5	1.8767
437	2.1767
437.5	2.4076
438	2.5688
438.5	2.6952
439	2.7577
439.5	2.7455
440	2.6608
440.5	2.5212
441	2.3617
441.5	2.2145
442	2.0725
442.5	1.8884
443	1.6234
443.5	1.2779
444	0.86499
444.5	0.41195
445	0.040962
445.5	0
446	0
446.5	0
447	0
447.5	0
448	0
448.5	0
449	0
449.5	0
450	0
450.5	0
451	0.23159
451.5	1.2482
452	2.2586
452.5	3.216
453	4.0745
453.5	4.8285
454	5.4541
454.5	6.0184
455	6.4834
455.5	6.8181
456	7.0346
456.5	7.1565
457	7.2163
457.5	7.244
458	7.2589
458.5	7.2596
459	7.2258
459.5	7.1157
460	6.9186
460.5	6.6182
461	6.2351
461.5	5.8088
462	5.3842
462.5	4.9888
463	4.6349
463.5	4.304
464	3.955
464.5	3.597
465	3.2267
465.5	2.8709
466	2.5691
466.5	2.3592
467	2.2641
467.5	2.2865
468	2.4141
468.5	2.6196
469	2.88
469.5	3.1833
470	3.5254
470.5	3.9152
471	4.3604
471.5	4.8643
472	5.4251
472.5	6.0439
473	6.7259
473.5	7.4841
474	8.3524
474.5	9.3297
475	10.421
475.5	11.622
476	12.898
476.5	14.2
477	15.481
477.5	16.676
478	17.714
478.5	18.532
479	19.082
479.5	19.335
480	19.282
480.5	18.928
481	18.29
481.5	17.398
482	16.292
482.5	15.028
483	13.668
483.5	12.277
484	10.91
484.5	9.5892
485	8.3611
485.5	7.202
486	6.0836
486.5	4.9773
487	3.8586
487.5	2.726
488	1.5854
488.5	0.46557
489	0
489.5	0
490	0
490.5	0
491	0
491.5	0
492	0
492.5	0
493	0
493.5	0
494	0
494.5	0
495	0
495.5	0
496	0.014638
496.5	0.53839
497	1.195
497.5	1.8327
498	2.467
498.5	3.141
499	3.8669
499.5	4.6668
500	5.5239
500.5	6.3929
501	7.2131
501.5	7.8973
502	8.4211
502.5	8.7596
503	8.9338
503.5	8.9956
504	9.0002
504.5	8.993
505	9.0029
505.5	9.0465
506	9.1394
506.5	9.31
507	9.6045
507.5	10.079
508	10.785
508.5	11.759
509	12.985
509.5	14.434
510	16.045
510.5	17.75
511	19.476
511.5	21.158
512	22.739
512.5	24.123
513	25.242
513.5	26.024
514	26.396
514.5	26.309
515	25.748
515.5	24.742
516	23.352
516.5	21.673
517	19.807
517.5	17.858
518	15.914
518.5	14.072
519	12.398
519.5	10.957
520	9.8221
520.5	9.0266
521	8.5852
521.5	8.4803
522	8.6507
522.5	9.0271
523	9.5185
523.5	10.041
524	10.526
524.5	10.931
525	11.233
525.5	11.422
526	11.488
526.5	11.422
527	11.215
527.5	10.86
528	10.366
528.5	9.7488
529	9.0197
529.5	8.2056
530	7.3278
530.5	6.3976
531	5.4364
531.5	4.456
532	3.4753
532.5	2.5203
533	1.6157
533.5	0.78321
534	0.035545
534.5	0
535	0
535.5	0
536	0
536.5	0
537	0
537.5	0
538	0
538.5	0
539	0
539.5	0.022835
540	0.31303
540.5	0.59477
541	0.83362
541.5	1.0228
542	1.121
542.5	1.1292
543	1.0399
543.5	0.86889
544	0.64257
544.5	0.40159
545	0.14214
545.5	0
546	0
546.5	0
547	0
547.5	0
548	0
548.5	0
549	0
549.5	0
550	0
550.5	0.043905
551	0.20336
551.5	0.47459
552	0.7127
552.5	0.91282
553	1.0834
553.5	1.2441
554	1.4259
554.5	1.6637
555	1.9847
555.5	2.4089
556	2.938
556.5	3.5639
557	4.2689
557.5	5.036
558	5.8502
558.5	6.6864
559	7.5303
559.5	8.3562
560	9.1314
560.5	9.8198
561	10.406
561.5	10.869
562	11.209
562.5	11.45
563	11.62
563.5	11.742
564	11.836
564.5	11.918
565	11.988
565.5	12.035
566	12.037
566.5	11.975
567	11.829
567.5	11.592
568	11.256
568.5	10.807
569	10.243
569.5	9.5486
570	8.7174
570.5	7.7584
571	6.7046
571.5	5.5855
572	4.4467
572.5	3.3272
573	2.2522
573.5	1.2435
574	0.32141
574.5	0
575	0
575.5	0
576	0
576.5	0
577	0
577.5	0
578	0
578.5	0
579	0.0038578
579.5	0.017649
580	0.017411
580.5	0.0031352
581	0.091955
581.5	0.3742
582	0.66853
582.5	0.97702
583	1.2952
583.5	1.6251
584	1.968
584.5	2.3317
585	2.7173
585.5	3.12
586	3.5287
586.5	3.9071
587	4.2756
587.5	4.5641
588	4.7634
588.5	4.889
589	4.9544
589.5	4.9863
590	4.9994
590.5	5.0028
591	5.0159
591.5	5.0452
592	5.0592
592.5	5.029
593	4.908
593.5	4.6486
594	4.2687
594.5	3.7445
595	3.1117
595.5	2.4053
596	1.6838
596.5	0.97043
597	0.29344
597.5	0
598	0
598.5	0
599	0
599.5	0
600	0
600.5	0
601	0
601.5	0
602	0
602.5	0
603	0
603.5	0
604	0
604.5	0
605	0
605.5	0
606	0.80636
606.5	2.1818
607	3.8213
607.5	5.7169
608	7.8596
608.5	10.232
609	12.811
609.5	15.561
610	18.428
610.5	21.361
611	24.257
611.5	27.061
612	29.687
612.5	32.045
613	34.048
613.5	35.614
614	36.686
614.5	37.23
615	37.247
615.5	36.76
616	35.85
616.5	34.589
617	33.074
617.5	31.398
618	29.652
618.5	27.913
619	26.24
619.5	24.715
620	23.422
620.5	22.443
621	21.82
621.5	21.627
622	21.848
622.5	22.454
623	23.396
623.5	24.58
624	25.947
624.5	27.422
625	28.928
625.5	30.394
626	31.754
626.5	32.917
627	33.808
627.5	34.345
628	34.453
628.5	34.081
629	33.206
629.5	31.857
630	30.091
630.5	28
631	25.68
631.5	23.227
632	20.731
632.5	18.274
633	15.932
633.5	13.761
634	11.841
634.5	10.201
635	8.847
635.5	7.7628
636	6.9162
636.5	6.2619
637	5.7627
637.5	5.3924
638	5.1443
638.5	5.0251
639	5.0549
639.5	5.2189
640	5.5285
640.5	5.9658
641	6.4965
641.5	7.079
642	7.67
642.5	8.2371
643	8.7533
643.5	9.1993
644	9.5583
644.5	9.8168
645	9.9689
645.5	10.018
646	9.9795
646.5	9.8691
647	9.714
647.5	9.5378
648	9.3657
648.5	9.2164
649	9.1036
649.5	9.0158
650	8.9651
650.5	8.9125
651	8.821
651.5	8.6539
652	8.3879
652.5	8.0242
653	7.581
653.5	7.091
654	6.5847
654.5	6.0843
655	5.6006
655.5	5.1387
656	4.6928
656.5	4.2575
657	3.8319
657.5	3.4266
658	3.0597
658.5	2.7559
659	2.5335
659.5	2.3982
660	2.3328
660.5	2.3088
661	2.3043
661.5	2.2934
662	2.264
662.5	2.2178
663	2.1573
663.5	2.0759
664	1.9558
664.5	1.768
665	1.485
665.5	1.2145
666	0.92175
666.5	0.5587
667	0.15835
667.5	0
668	0
668.5	0
669	0
669.5	0
670	0
670.5	0
671	0
671.5	0
672	0
672.5	0.095326
673	0.79671
673.5	1.5188
674	2.2094
674.5	2.8261
675	3.3475
675.5	3.763
676	4.0746
676.5	4.2943
677	4.4431
677.5	4.5539
678	4.6264
678.5	4.6427
679	4.6005
679.5	4.4913
680	4.3259
680.5	4.1241
681	3.9051
681.5	3.7153
682	3.5363
682.5	3.3166
683	3.0182
683.5	2.6108
684	2.0983
684.5	1.5005
685	0.86824
685.5	0.25467
686	0
686.5	0
687	0
687.5	0
688	0
688.5	0
689	0
689.5	0
690	0
690.5	0
691	0
691.5	0.13707
692	0.27357
692.5	0.34511
693	0.32819
693.5	0.21884
694	0.06702
694.5	0
695	0
695.5	0
696	0.13985
696.5	0.47163
697	0.89962
697.5	1.3991
698	1.9351
698.5	2.4624
699	2.9257
699.5	3.2885
700	3.5253
700.5	3.633
701	3.6235
701.5	3.5265
702	3.3806
702.5	3.2373
703	3.1603
703.5	3.2332
704	3.4684
704.5	3.9221
705	4.581
705.5	5.3972
706	6.2804
706.5	7.159
707	7.9426
707.5	8.564
708	8.9781
708.5	9.1523
709	9.0646
709.5	8.7156
710	8.1174
710.5	7.3076
711	6.3369
711.5	5.2745
712	4.1967
712.5	3.1783
713	2.2821
713.5	1.5502
714	0.97033
714.5	0.57794
715	0.33652
715.5	0.2353
716	0.24911
716.5	0.37458
717	0.59706
717.5	0.8943
718	1.2352
718.5	1.5807
719	1.8927
719.5	2.1403
720	2.2987
720.5	2.3647
721	2.3299
721.5	2.2058
722	2.0128
722.5	1.7818
723	1.5361
723.5	1.309
724	1.1223
724.5	0.98885
725	0.91347
725.5	0.89365
726	0.90927
726.5	0.94327
727	0.97236
727.5	0.96756
728	0.91953
728.5	0.83392
729	0.73324
729.5	0.61738
730	0.50242
730.5	0.39212
731	0.27129
731.5	0.16243
732	0.072381
732.5	0.020715
733	0.012635
733.5	0.057201
734	0.13978
734.5	0.25462
735	0.40874
735.5	0.62708
736	0.9435
736.5	1.3874
737	1.9845
737.5	2.7303
738	3.6302
738.5	4.6841
739	5.8944
739.5	7.2479
740	8.7433
740.5	10.352
741	12.047
741.5	13.79
742	15.546
742.5	17.284
743	18.954
743.5	20.498
744	21.859
744.5	22.995
745	23.884
745.5	24.524
746	24.914
746.5	25.043
747	24.885
747.5	24.41
748	23.61
748.5	22.507
749	21.179
749.5	19.712
750	18.205
750.5	16.756
751	15.432
751.5	14.286
752	13.378
752.5	12.713
753	12.272
753.5	12.018
754	11.91
754.5	11.905
755	11.97
755.5	12.073
756	12.184
756.5	12.253
757	12.226
757.5	12.038
758	11.637
758.5	11.006
759	10.169
759.5	9.1577
760	8.0357
760.5	6.8589
761	5.666
761.5	4.4889
762	3.3372
762.5	2.2321
763	1.1842
763.5	0.2217
764	0
764.5	0
765	0
765.5	0
766	0
766.5	0
767	0
767.5	0
768	0
768.5	0
769	0.31427
769.5	0.68805
770	1.0557
770.5	1.3868
771	1.6622
771.5	1.8394
772	1.8806
772.5	1.7909
773	1.5949
773.5	1.3151
774	0.9671
774.5	0.56691
775	0.1307
775.5	0
776	0
776.5	0
777	0
777.5	0
778	0
778.5	0
779	0
779.5	0
780	0
780.5	0
781	0
781.5	0
782	0
782.5	0.17174
783	1.6278
783.5	3.1256
784	4.6387
784.5	6.1425
785	7.6127
785.5	9.0096
786	10.296
786.5	11.439
787	12.441
787.5	13.333
788	14.166
788.5	14.999
789	15.88
789.5	16.83
790	17.846
790.5	18.903
791	19.968
791.5	21.008
792	21.99
792.5	22.895
793	23.707
793.5	24.409
794	24.974
794.5	25.364
795	25.524
795.5	25.379
796	24.9
796.5	24.091
797	22.998
797.5	21.675
798	20.176
798.5	18.542
799	16.797
799.5	14.972
800	13.117
800.5	11.304
801	9.6161
801.5	8.1266
802	6.8811
802.5	5.9145
803	5.2422
803.5	4.8878
804	4.872
804.5	5.2071
805	5.8869
805.5	6.8874
806	8.173
806.5	9.709
807	11.469
807.5	13.432
808	15.573
808.5	17.877
809	20.271
809.5	22.734
810	25.21
810.5	27.631
811	29.902
811.5	31.91
812	33.545
812.5	34.718
813	35.382
813.5	35.541
814	35.221
814.5	34.466
815	33.32
815.5	31.83
816	30.049
816.5	28.043
817	25.885
817.5	23.653
818	21.411
818.5	19.218
819	17.097
819.5	15.11
820	13.267
820.5	11.586
821	10.076
821.5	8.7421
822	7.5884
822.5	6.6157
823	5.8223
823.5	5.2031
824	4.7459
824.5	4.4362
825	4.2581
825.5	4.1931
826	4.2192
826.5	4.3137
827	4.4536
827.5	4.6285
828	4.8423
828.5	5.1139
829	5.4749
829.5	5.9566
830	6.5825
830.5	7.3634
831	8.2928
831.5	9.3578
832	10.52
832.5	11.75
833	13.001
833.5	14.226
834	15.374
834.5	16.394
835	17.238
835.5	17.865
836	18.242
836.5	18.355
837	18.208
837.5	17.824
838	17.238
838.5	16.494
839	15.637
839.5	14.723
840	13.795
840.5	12.905
841	12.107
841.5	11.444
842	10.944
842.5	10.642
843	10.515
843.5	10.53
844	10.638
844.5	10.795
845	10.966
845.5	11.129
846	11.264
846.5	11.353
847	11.368
847.5	11.278
848	11.051
848.5	10.665
849	10.107
849.5	9.3852
850	8.5055
850.5	7.4992
851	6.4009
851.5	5.2565
852	4.1111
852.5	3.0033
853	1.9688
853.5	1.0325
854	0.22048
854.5	0
855	0
855.5	0
856	0
856.5	0
857	0
857.5	0
858	0
858.5	0.01514
859	0.025592
859.5	0.01396
860	0
860.5	0
861	0
861.5	0
862	0
862.5	0
863	0
863.5	0
864	0
864.5	0
865	0.083673
865.5	0.17038
866	0.20406
866.5	0.16609
867	0.068318
867.5	0
868	0
868.5	0
869	0
869.5	0
870	0.37233
870.5	0.8922
871	1.5284
871.5	2.2512
872	3.0229
872.5	3.8146
873	4.5844
873.5	5.31
874	5.959
874.5	6.484
875	6.8284
875.5	6.9407
876	6.8173
876.5	6.4705
877	5.9548
877.5	5.3303
878	4.6495
878.5	3.9493
879	3.2542
879.5	2.5855
880	1.9701
880.5	1.4408
881	1.0363
881.5	0.79142
882	0.73619
882.5	0.85564
883	1.1248
883.5	1.5
884	1.931
884.5	2.3723
885	2.7942
885.5	3.1742
886	3.5212
886.5	3.8368
887	4.1132
887.5	4.3276
888	4.4492
888.5	4.4483
889	4.3
889.5	3.9918
890	3.5626
890.5	3.0356
891	2.4515
891.5	1.8436
892	1.2413
892.5	0.65644
893	0.099283
893.5	0
894	0
894.5	0
895	0
895.5	0
896	0
896.5	0
897	0
897.5	0
898	0
898.5	0.15296
899	0.78326
899.5	1.4254
900	2.0182
900.5	2.5151
901	2.865
901.5	3.003
902	2.9207
902.5	2.6545
903	2.2216
903.5	1.7002
904	1.1033
904.5	0.44322
905	0
905.5	0
906	0
906.5	0
907	0
907.5	0
908	0.40547
908.5	1.3993
909	2.6374
909.5	4.0594
910	5.624
910.5	7.312
911	9.1393
911.5	11.086
912	13.164
912.5	15.355
913	17.617
913.5	19.894
914	22.129
914.5	24.28
915	26.332
915.5	28.293
916	30.181
916.5	32.007
917	33.763
917.5	35.415
918	36.912
918.5	38.234
919	39.387
919.5	40.413
920	41.377
920.5	42.35
921	43.386
921.5	44.527
922	45.812
922.5	47.282
923	48.963
923.5	50.876
924	53.024
924.5	55.395
925	57.937
925.5	60.566
926	63.151
926.5	65.519
927	67.477
927.5	68.834
928	69.43
928.5	69.174
929	68.026
929.5	66.018
930	63.224
930.5	59.759
931	55.76
931.5	51.382
932	46.779
932.5	42.102
933	37.484
933.5	33.05
934	28.899
934.5	25.11
935	21.715
935.5	18.712
936	16.064
936.5	13.715
937	11.607
937.5	9.6949
938	7.9552
938.5	6.3875
939	5.0024
939.5	3.8411
940	2.9213
940.5	2.2377
941	1.7573
941.5	1.4208
942	1.159
942.5	0.91818
943	0.67039
943.5	0.41306
944	0.15862
944.5	0.10071
945	0.10879
945.5	0.099587
946	0.062507
946.5	0.0068747
947	0
947.5	0
948	0
948.5	0
949	0
949.5	0
950	0
950.5	0
951	0.19049
951.5	1.1326
952	2.2584
952.5	3.6046
953	5.2117
953.5	7.0951
954	9.252
954.5	11.608
955	14.102
955.5	16.644
956	19.137
956.5	21.51
957	23.717
957.5	25.726
958	27.515
958.5	29.055
959	30.303
959.5	31.209
960	31.732
960.5	31.858
961	31.601
961.5	31.005
962	30.142
962.5	29.068
963	27.842
963.5	26.512
964	25.11
964.5	23.643
965	22.144
965.5	20.605
966	19.027
966.5	17.429
967	15.846
967.5	14.318
968	12.872
968.5	11.518
969	10.234
969.5	9.003
970	7.8156
970.5	6.6521
971	5.5
971.5	4.3521
972	3.2098
972.5	2.0884
973	1.0129
973.5	0.016158
974	0
974.5	0
975	0
975.5	0
976	0
976.5	0
977	0
977.5	0
978	0
978.5	0
979	0
979.5	0
980	0
980.5	0
981	0
981.5	0.58416
982	2.2755
982.5	4.1295
983	6.084
983.5	8.0777
984	10.032
984.5	11.877
985	13.553
985.5	15.024
986	16.281
986.5	17.314
987	18.138
987.5	18.762
988	19.182
988.5	19.393
989	19.39
989.5	19.186
990	18.815
990.5	18.326
991	17.769
991.5	17.185
992	16.577
992.5	15.927
993	15.188
993.5	14.333
994	13.322
994.5	12.205
995	11.019
995.5	9.8417
996	8.7462
996.5	7.771
997	6.9154
997.5	6.1714
998	5.5305
998.5	5.002
999	4.611
999.5	4.3794
1000	4.3109
1000.5	4.3791
1001	4.531
1001.5	4.702
1002	4.8235
1002.5	4.8332
1003	4.6815
1003.5	4.3335
1004	3.788
1004.5	3.1049
1005	2.3014
1005.5	1.4635
1006	0.64743
1006.5	0.17819
1007	0
1007.5	0
1008	0
1008.5	0
1009	0
1009.5	0
1010	0
1010.5	0
1011	0
1011.5	0
1012	0
1012.5	0
1013	0
1013.5	0
1014	0
1014.5	0
1015	0
1015.5	0
1016	0
1016.5	0
1017	0
1017.5	0
1018	0
1018.5	0
1019	0.025541
1019.5	0.074289
1020	0.10406
1020.5	0.19983
1021	0.28252
1021.5	0.33268
1022	0.38756
1022.5	0.59214
1023	0.87356
1023.5	1.2632
1024	1.7783
1024.5	2.4237
1025	3.1737
1025.5	3.9996
1026	4.8498
1026.5	5.6632
1027	6.3802
1027.5	6.9471
1028	7.3302
1028.5	7.5105
1029	7.4847
1029.5	7.2588
1030	6.8427
1030.5	6.251
1031	5.5029
1031.5	4.6358
1032	3.7026
1032.5	2.7847
1033	1.9755
1033.5	1.3657
1034	1.0289
1034.5	0.99536
1035	1.2457
1035.5	1.7389
1036	2.4027
1036.5	3.1695
1037	3.9864
1037.5	4.8134
1038	5.6263
1038.5	6.3986
1039	7.1081
1039.5	7.731
1040	8.2562
1040.5	8.6904
1041	9.062
1041.5	9.4212
1042	9.825
1042.5	10.329
1043	10.978
1043.5	11.759
1044	12.665
1044.5	13.638
1045	14.606
1045.5	15.489
1046	16.216
1046.5	16.754
1047	17.085
1047.5	17.204
1048	17.124
1048.5	16.848
1049	16.384
1049.5	15.744
1050	14.958
1050.5	14.081
1051	13.164
1051.5	12.258
1052	11.403
1052.5	10.616
1053	9.9075
1053.5	9.2598
1054	8.6873
1054.5	8.1678
1055	7.6905
1055.5	7.2428
1056	6.8214
1056.5	6.4365
1057	6.0786
1057.5	5.7484
1058	5.446
1058.5	5.162
1059	4.8874
1059.5	4.615
1060	4.3406
1060.5	4.0663
1061	3.7915
1061.5	3.531
1062	3.3029
1062.5	3.1265
1063	3.0134
1063.5	2.9661
1064	2.9776
1064.5	3.0334
1065	3.1147
1065.5	3.1999
1066	3.2748
1066.5	3.3378
1067	3.4017
1067.5	3.5007
1068	3.6726
1068.5	3.9408
1069	4.3057
1069.5	4.7494
1070	5.252
1070.5	5.8109
1071	6.4508
1071.5	7.2113
1072	8.1301
1072.5	9.2341
1073	10.524
1073.5	11.966
1074	13.542
1074.5	15.188
1075	16.824
1075.5	18.368
1076	19.75
1076.5	20.922
1077	21.846
1077.5	22.49
1078	22.805
1078.5	22.74
1079	22.248
1079.5	21.324
1080	19.999
1080.5	18.35
1081	16.47
1081.5	14.45
1082	12.378
1082.5	10.365
1083	8.429
1083.5	6.581
1084	4.8225
1084.5	3.1567
1085	1.6055
1085.5	0.21201
1086	0
1086.5	0
1087	0
1087.5	0
1088	0
1088.5	0
1089	0
1089.5	0
1090	0
1090.5	0
1091	0
1091.5	0
1092	0
1092.5	0
1093	0
1093.5	0
1094	0
1094.5	0
1095	0.11761
1095.5	0.74218
1096	1.365
1096.5	1.8997
1097	2.321
1097.5	2.5638
1098	2.5872
1098.5	2.3898
1099	2.0013
1099.5	1.5017
1100	0.95777
1100.5	0.64306
1101	0.55352
1101.5	0.52824
1102	0.60554
1102.5	0.80768
1103	1.1378
1103.5	1.5982
1104	2.2008
1104.5	2.9761
1105	3.9623
1105.5	5.1866
1106	6.646
1106.5	8.3073
1107	10.115
1107.5	12.009
1108	13.929
1108.5	15.829
1109	17.678
1109.5	19.451
1110	21.141
1110.5	22.761
1111	24.342
1111.5	25.919
1112	27.532
1112.5	29.23
1113	31.076
1113.5	33.147
1114	35.518
1114.5	38.255
1115	41.392
1115.5	44.935
1116	48.865
1116.5	53.164
1117	57.793
1117.5	62.689
1118	67.736
1118.5	72.799
1119	77.704
1119.5	82.336
1120	86.599
1120.5	90.429
1121	93.751
1121.5	96.474
1122	98.488
1122.5	99.689
1123	100
1123.5	99.407
1124	97.945
1124.5	95.712
1125	92.845
1125.5	89.503
1126	85.857
1126.5	82.058
1127	78.228
1127.5	74.455
1128	70.786
1128.5	67.265
1129	63.926
1129.5	60.816
1130	57.926
1130.5	55.239
1131	52.703
1131.5	50.245
1132	47.785
1132.5	45.253
1133	42.632
1133.5	39.933
1134	37.169
1134.5	34.365
1135	31.535
1135.5	28.678
1136	25.785
1136.5	22.859
1137	19.909
1137.5	16.985
1138	14.119
1138.5	11.354
1139	8.7287
1139.5	6.2837
1140	4.0678
1140.5	2.1294
1141	0.51901
1141.5	0
1142	0
1142.5	0
1143	0
1143.5	0
1144	0
1144.5	0.84842
1145	2.5653
1145.5	4.5241
1146	6.6273
1146.5	8.8068
1147	11.007
1147.5	13.199
1148	15.32
1148.5	17.327
1149	19.174
1149.5	20.828
1150	22.261
1150.5	23.466
1151	24.446
1151.5	25.212
1152	25.8
1152.5	26.257
1153	26.624
1153.5	26.901
1154	27.07
1154.5	27.1
1155	26.958
1155.5	26.619
1156	26.119
1156.5	25.488
1157	24.775
1157.5	24.015
1158	23.25
1158.5	22.544
1159	21.966
1159.5	21.586
1160	21.461
1160.5	21.642
1161	22.161
1161.5	23.039
1162	24.285
1162.5	25.885
1163	27.805
1163.5	29.955
1164	32.261
1164.5	34.639
1165	37.005
1165.5	39.283
1166	41.401
1166.5	43.255
1167	44.77
1167.5	45.881
1168	46.588
1168.5	46.896
1169	46.818
1169.5	46.375
1170	45.589
1170.5	44.481
1171	43.079
1171.5	41.424
1172	39.566
1172.5	37.553
1173	35.42
1173.5	33.175
1174	30.846
1174.5	28.428
1175	25.916
1175.5	23.303
1176	20.58
1176.5	17.741
1177	14.802
1177.5	11.808
1178	8.8284
1178.5	5.9424
1179	3.2244
1179.5	0.71359
1180	0
1180.5	0
1181	0
1181.5	0
1182	0
1182.5	0
1183	0
1183.5	0
1184	0
1184.5	0
1185	0
1185.5	0
1186	0
1186.5	0
1187	0
1187.5	0
1188	0
1188.5	0
1189	0
1189.5	0
1190	0
1190.5	0
1191	0.65738
1191.5	1.8966
1192	3.8265
1192.5	5.7743
1193	7.6813
1193.5	9.48
1194	11.12
1194.5	12.552
1195	13.72
1195.5	14.58
1196	15.091
1196.5	15.245
1197	15.08
1197.5	14.666
1198	14.094
1198.5	13.439
1199	12.754
1199.5	12.07
1200	11.424
1200.5	10.861
1201	10.442
1201.5	10.223
1202	10.245
1202.5	10.519
1203	11.04
1203.5	11.765
1204	12.665
1204.5	13.697
1205	14.835
1205.5	16.055
1206	17.324
1206.5	18.61
1207	19.876
1207.5	21.079
1208	22.186
1208.5	23.177
1209	24.025
1209.5	24.736
1210	25.306
1210.5	25.718
1211	25.95
1211.5	26.012
1212	25.893
1212.5	25.613
1213	25.2
1213.5	24.686
1214	24.109
1214.5	23.511
1215	22.945
1215.5	22.458
1216	22.099
1216.5	21.899
1217	21.879
1217.5	22.053
1218	22.419
1218.5	22.962
1219	23.638
1219.5	24.415
1220	25.245
1220.5	26.107
1221	27.003
1221.5	27.969
1222	28.959
1222.5	29.966
1223	30.956
1223.5	31.915
1224	32.824
1224.5	33.685
1225	34.494
1225.5	35.221
1226	35.8
1226.5	36.14
1227	36.156
1227.5	35.776
1228	34.945
1228.5	33.634
1229	31.836
1229.5	29.586
1230	26.97
1230.5	24.128
1231	21.171
1231.5	18.185
1232	15.206
1232.5	12.279
1233	9.4182
1233.5	6.706
1234	4.1874
1234.5	1.9213
1235	0
1235.5	0
1236	0
1236.5	0
1237	0
1237.5	0
1238	0
1238.5	0
1239	0
1239.5	0
1240	0
1240.5	0
1241	0
1241.5	0
1242	1.1214
1242.5	3.1404
1243	5.2634
1243.5	7.4883
1244	9.7927
1244.5	12.208
1245	14.734
1245.5	17.353
1246	19.992
1246.5	22.58
1247	25.031
1247.5	27.252
1248	29.171
1248.5	30.768
1249	32.053
1249.5	33.059
1250	33.819
1250.5	34.364
1251	34.72
1251.5	34.913
1252	34.975
1252.5	34.949
1253	34.885
1253.5	34.828
1254	34.81
1254.5	34.849
1255	34.904
1255.5	34.964
1256	35.008
1256.5	35.054
1257	35.128
1257.5	35.288
1258	35.568
1258.5	36.007
1259	36.602
1259.5	37.31
1260	38.073
1260.5	38.836
1261	39.557
1261.5	40.204
1262	40.741
1262.5	41.119
1263	41.269
1263.5	41.134
1264	40.681
1264.5	39.928
1265	38.923
1265.5	37.749
1266	36.496
1266.5	35.243
1267	34.056
1267.5	32.973
1268	31.984
1268.5	31.078
1269	30.19
1269.5	29.286
1270	28.321
1270.5	27.275
1271	26.146
1271.5	24.939
1272	23.655
1272.5	22.294
1273	20.873
1273.5	19.436
1274	18.047
1274.5	16.757
1275	15.592
1275.5	14.543
1276	13.578
1276.5	12.661
1277	11.755
1277.5	10.814
1278	9.7834
1278.5	8.6037
1279	7.2457
1279.5	5.7115
1280	4.0532
1280.5	2.3418
1281	0.64679
1281.5	0
1282	0
1282.5	0
1283	0
1283.5	0
1284	0
1284.5	0
1285	0
1285.5	0
1286	0
1286.5	0
1287	0
1287.5	0
1288	0.014852
1288.5	0.21085
1289	0.58893
1289.5	0.9843
1290	1.4041
1290.5	1.8253
1291	2.1978
1291.5	2.488
1292	2.6585
1292.5	2.7204
1293	2.693
1293.5	2.5904
1294	2.4276
1294.5	2.2184
1295	1.9905
1295.5	1.7646
1296	1.576
1296.5	1.3819
1297	1.15
1297.5	0.85878
1298	0.52738
1298.5	0.21907
1299	0
1299.5	0
1300	0
1300.5	0.0022587
1301	0
1301.5	0
1302	0
1302.5	0
1303	0
1303.5	0
1304	0
1304.5	0
1305	0
1305.5	0
1306	0
1306.5	0
1307	0
1307.5	0
1308	0
1308.5	0
1309	0
1309.5	0
1310	0
1310.5	0
1311	0
1311.5	0
1312	0
1312.5	0.60321
1313	1.5677
1313.5	2.6558
1314	3.853
1314.5	5.1401
1315	6.4892
1315.5	7.8643
1316	9.2243
1316.5	10.535
1317	11.78
1317.5	12.966
1318	14.11
1318.5	15.223
1319	16.297
1319.5	17.3
1320	18.186
1320.5	18.928
1321	19.52
1321.5	19.999
1322	20.422
1322.5	20.857
1323	21.371
1323.5	22.025
1324	22.88
1324.5	24.002
1325	25.451
1325.5	27.261
1326	29.444
1326.5	31.986
1327	34.841
1327.5	37.945
1328	41.226
1328.5	44.606
1329	48
1329.5	51.312
1330	54.416
1330.5	57.232
1331	59.692
1331.5	61.778
1332	63.508
1332.5	64.915
1333	66.036
1333.5	66.897
1334	67.515
1334.5	67.896
1335	68.036
1335.5	67.917
1336	67.493
1336.5	66.715
1337	65.535
1337.5	63.941
1338	61.973
1338.5	59.667
1339	57.063
1339.5	54.2
1340	51.102
1340.5	47.827
1341	44.425
1341.5	40.968
1342	37.528
1342.5	34.167
1343	30.932
1343.5	27.845
1344	24.916
1344.5	22.149
1345	19.539
1345.5	17.077
1346	14.738
1346.5	12.49
1347	10.299
1347.5	8.1381
1348	6.014
1348.5	3.9569
1349	2.017
1349.5	0.25289
1350	0
1350.5	0
1351	0
1351.5	0
1352	0
1352.5	0
1353	0
1353.5	0
1354	0
1354.5	0
1355	0
1355.5	0
1356	0
1356.5	0
1357	0
1357.5	0
1358	0
1358.5	0
1359	0
1359.5	0
1360	0
1360.5	0
1361	0
1361.5	0
1362	0
1362.5	0
1363	0
1363.5	0
1364	0
1364.5	0.75838
1365	1.6325
1365.5	2.5912
1366	3.638
1366.5	4.7587
1367	5.9279
1367.5	7.0682
1368	8.1234
1368.5	9.053
1369	9.8416
1369.5	10.534
1370	11.079
1370.5	11.451
1371	11.668
1371.5	11.751
1372	11.717
1372.5	11.568
1373	11.295
1373.5	10.91
1374	10.436
1374.5	9.9209
1375	9.3703
1375.5	8.7403
1376	8.0183
1376.5	7.1825
1377	6.1785
1377.5	5.0265
1378	3.7609
1378.5	2.4484
1379	1.154
1379.5	0
1380	0
1380.5	0
1381	0
1381.5	0
1382	0
1382.5	0
1383	0
1383.5	0
1384	0
1384.5	0
1385	0
1385.5	0
1386	0
1386.5	0
1387	0
1387.5	0
1388	0
1388.5	0
1389	1.706
1389.5	3.8267
1390	6.284
1390.5	9.076
1391	12.193
1391.5	15.61
1392	19.287
1392.5	23.157
1393	27.191
1393.5	31.359
1394	35.625
1394.5	39.92
1395	44.15
1395.5	48.209
1396	52.02
1396.5	55.55
1397	58.798
1397.5	61.781
1398	64.51
1398.5	66.984
1399	69.2
1399.5	71.165
1400	72.902
1400.5	74.454
1401	75.879
1401.5	77.228
1402	78.526
1402.5	79.79
1403	81
1403.5	82.113
1404	83.082
1404.5	83.902
1405	84.61
1405.5	85.287
1406	86.004
1406.5	86.803
1407	87.68
1407.5	88.602
1408	89.502
1408.5	90.293
1409	90.871
1409.5	91.121
1410	90.941
1410.5	90.262
1411	89.05
1411.5	87.288
1412	84.955
1412.5	82.028
1413	78.495
1413.5	74.397
1414	69.829
1414.5	64.932
1415	59.855
1415.5	54.723
1416	49.626
1416.5	44.65
1417	39.897
1417.5	35.474
1418	31.474
1418.5	27.966
1419	24.986
1419.5	22.519
1420	20.567
1420.5	19.107
1421	18.089
1421.5	17.432
1422	17.07
1422.5	16.926
1423	16.957
1423.5	17.134
1424	17.427
1424.5	17.778
1425	18.12
1425.5	18.397
1426	18.608
1426.5	18.761
1427	18.881
1427.5	18.979
1428	19.055
1428.5	19.101
1429	19.098
1429.5	19.016
1430	18.838
1430.5	18.505
1431	17.964
1431.5	17.186
1432	16.189
1432.5	15
1433	13.689
1433.5	12.313
1434	10.893
1434.5	9.431
1435	7.9295
1435.5	6.4094
1436	4.8978
1436.5	3.4173
1437	1.9935
1437.5	0.63476
1438	0
1438.5	0
1439	0
1439.5	0
1440	0
1440.5	0
1441	0
1441.5	0
1442	0
1442.5	0
1443	0
1443.5	0
1444	0
1444.5	0.10477
1445	1.2307
1445.5	2.4789
1446	3.8528
1446.5	5.3741
1447	7.0717
1447.5	8.9568
1448	11.054
1448.5	13.39
1449	15.997
1449.5	18.889
1450	22.036
1450.5	25.354
1451	28.811
1451.5	32.398
1452	36.112
1452.5	39.995
1453	44.008
1453.5	48.083
1454	52.108
1454.5	55.982
1455	59.634
1455.5	63.038
1456	66.17
1456.5	68.992
1457	71.458
1457.5	73.524
1458	75.182
1458.5	76.465
1459	77.451
1459.5	78.131
1460	78.494
1460.5	78.535
1461	78.258
1461.5	77.666
1462	76.707
1462.5	75.292
1463	73.281
1463.5	70.582
1464	67.162
1464.5	63.061
1465	58.37
1465.5	53.209
1466	47.684
1466.5	41.898
1467	35.957
1467.5	29.979
1468	24.078
1468.5	18.362
1469	12.919
1469.5	7.8843
1470	3.3301
1470.5	0
1471	0
1471.5	0
1472	0
1472.5	0
1473	0
1473.5	0
1474	0
1474.5	0
1475	0
1475.5	0
1476	0
1476.5	0
1477	0
1477.5	0
1478	0
1478.5	0
1479	0
1479.5	0
1480	0
1480.5	0
1481	0
1481.5	1.3923
1482	3.5569
1482.5	5.8315
1483	8.165
1483.5	10.462
1484	12.706
1484.5	14.9
1485	17.082
1485.5	19.296
1486	21.583
1486.5	23.978
1487	26.493
1487.5	29.122
1488	31.832
1488.5	34.563
1489	37.23
1489.5	39.735
1490	41.994
1490.5	43.955
1491	45.595
1491.5	46.926
1492	47.948
1492.5	48.663
1493	49.059
1493.5	49.124
1494	48.835
1494.5	48.207
1495	47.282
1495.5	46.12
1496	44.749
1496.5	43.185
1497	41.446
1497.5	39.57
1498	37.602
1498.5	35.58
1499	33.504
1499.5	31.35
1500	29.121
1500.5	26.823
1501	24.496
1501.5	22.2
1502	19.975
1502.5	17.85
1503	15.811
1503.5	13.83
1504	11.905
1504.5	10.01
1505	8.1391
1505.5	6.2993
1506	4.5194
1506.5	2.8534
1507	1.3722
1507.5	0.13914
1508	0
1508.5	0
1509	0
1509.5	0
1510	0
1510.5	0
1511	0
1511.5	1.1285
1512	2.5597
1512.5	4.2206
1513	6.0814
1513.5	8.1136
1514	10.301
1514.5	12.578
1515	14.896
1515.5	17.178
1516	19.337
1516.5	21.304
1517	23.04
1517.5	24.546
1518	25.87
1518.5	27.018
1519	28.015
1519.5	28.837
1520	29.413
1520.5	29.715
1521	29.753
1521.5	29.595
1522	29.335
1522.5	29.069
1523	28.856
1523.5	28.719
1524	28.652
1524.5	28.607
1525	28.571
1525.5	28.533
1526	28.496
1526.5	28.486
1527	28.548
1527.5	28.743
1528	29.127
1528.5	29.695
1529	30.44
1529.5	31.283
1530	32.166
1530.5	33.072
1531	34.021
1531.5	35.066
1532	36.235
1532.5	37.521
1533	38.884
1533.5	40.271
1534	41.66
1534.5	43.037
1535	44.38
1535.5	45.649
1536	46.817
1536.5	47.876
1537	48.854
1537.5	49.815
1538	50.81
1538.5	51.822
1539	52.784
1539.5	53.61
1540	54.239
1540.5	54.675
1541	54.978
1541.5	55.226
1542	55.512
1542.5	55.904
1543	56.415
1543.5	57.025
1544	57.683
1544.5	58.298
1545	58.774
1545.5	59.025
1546	59
1546.5	58.668
1547	58.033
1547.5	57.123
1548	55.953
1548.5	54.521
1549	52.823
1549.5	50.876
1550	48.74
1550.5	46.551
1551	44.48
1551.5	42.704
1552	41.363
1552.5	40.49
1553	40.023
1553.5	39.85
1554	39.816
1554.5	39.774
1555	39.582
1555.5	39.121
1556	38.313
1556.5	37.124
1557	35.573
1557.5	33.703
1558	31.559
1558.5	29.172
1559	26.563
1559.5	23.774
1560	20.879
1560.5	18.001
1561	15.272
1561.5	12.816
1562	10.722
1562.5	9.01
1563	7.6564
1563.5	6.6034
1564	5.7811
1564.5	5.1316
1565	4.6257
1565.5	4.2573
1566	4.0436
1566.5	3.9988
1567	4.1345
1567.5	4.4521
1568	4.9402
1568.5	5.5735
1569	6.3102
1569.5	7.1049
1570	7.9266
1570.5	8.7836
1571	9.7135
1571.5	10.778
1572	12.022
1572.5	13.434
1573	14.97
1573.5	16.555
1574	18.126
1574.5	19.639
1575	21.078
1575.5	22.438
1576	23.722
1576.5	24.929
1577	26.047
1577.5	27.05
1578	27.889
1578.5	28.505
1579	28.864
1579.5	28.973
1580	28.884
1580.5	28.677
1581	28.425
1581.5	28.176
1582	27.937
1582.5	27.682
1583	27.374
1583.5	26.972
1584	26.451
1584.5	25.82
1585	25.112
1585.5	24.36
1586	23.581
1586.5	22.754
1587	21.833
1587.5	20.774
1588	19.559
1588.5	18.203
1589	16.762
1589.5	15.301
1590	13.884
1590.5	12.562
1591	11.353
1591.5	10.247
1592	9.2138
1592.5	8.2206
1593	7.252
1593.5	6.3287
1594	5.4997
1594.5	4.8296
1595	4.3639
1595.5	4.1072
1596	4.0329
1596.5	4.0946
1597	4.2489
1597.5	4.4705
1598	4.7483
1598.5	5.0815
1599	5.4835
1599.5	5.9798
1600	6.6008
1600.5	7.36
1601	8.2343
1601.5	9.1711
1602	10.114
1602.5	11.03
1603	11.929
1603.5	12.85
1604	13.834
1604.5	14.896
1605	16.024
1605.5	17.179
1606	18.312
1606.5	19.383
1607	20.369
1607.5	21.261
1608	22.063
1608.5	22.781
1609	23.417
1609.5	23.971
1610	24.429
1610.5	24.768
1611	24.946
1611.5	24.926
1612	24.686
1612.5	24.23
1613	23.595
1613.5	22.825
1614	21.938
1614.5	20.92
1615	19.749
1615.5	18.414
1616	16.941
1616.5	15.382
1617	13.791
1617.5	12.202
1618	10.631
1618.5	9.0986
1619	7.6413
1619.5	6.3079
1620	5.139
1620.5	4.1359
1621	3.2626
1621.5	2.4685
1622	1.7158
1622.5	0.9886
1623	0.29323
1623.5	0
1624	0
1624.5	0
1625	0
1625.5	0
1626	0
1626.5	0
1627	0
1627.5	0
1628	0
1628.5	0
1629	0
1629.5	0
1630	0
1630.5	0
1631	0
1631.5	0.0085699
1632	0.00063597
1632.5	0
1633	0
1633.5	0
1634	0
1634.5	0.011639
1635	0.050878
1635.5	0.057388
1636	0.026861
1636.5	0
1637	0
1637.5	0
1638	0
1638.5	0
1639	0
1639.5	0
1640	0
1640.5	0
1641	0
1641.5	0
1642	0
1642.5	0
1643	0
1643.5	0
1644	0
1644.5	0
1645	0
1645.5	0
1646	0
1646.5	0
1647	0
1647.5	0
1648	0
1648.5	0
1649	0
1649.5	0
1650	0
1650.5	0
1651	0
1651.5	0
1652	0
1652.5	0
1653	0
1653.5	0
1654	0
1654.5	0
1655	0
1655.5	0
1656	0
1656.5	0
1657	0.017322
1657.5	0.019173
1658	0.0097663
1658.5	0.075539
1659	0.16165
1659.5	0.25569
1660	0.35484
1660.5	0.46379
1661	0.57832
1661.5	0.67212
1662	0.72093
1662.5	0.70743
1663	0.6345
1663.5	0.52099
1664	0.38757
1664.5	0.24927
1665	0.12606
1665.5	0.02209
1666	0.00097514
1666.5	0
1667	0
1667.5	0
1668	0
1668.5	0
1669	0
1669.5	0
1670	0
1670.5	0.095487
1671	0.21089
1671.5	0.31625
1672	0.38285
1672.5	0.39913
1673	0.36547
1673.5	0.29637
1674	0.22603
1674.5	0.18022
1675	0.16815
1675.5	0.17356
1676	0.15419
1676.5	0.0935
1677	0.02946
1677.5	0
1678	0
1678.5	0
1679	0
1679.5	0
1680	0
1680.5	0
1681	0.0039836
1681.5	0.023613
1682	0.020732
1682.5	0
1683	0
1683.5	0
1684	0
1684.5	0
1685	0
1685.5	0.01812
1686	0.026299
1686.5	0.01235
1687	0
1687.5	0
1688	0
1688.5	0
1689	0
1689.5	0
1690	0
1690.5	0
1691	0
1691.5	0.024114
1692	0.029141
1692.5	0.012844
1693	0
1693.5	0
1694	0
1694.5	0
1695	0
1695.5	0.020478
1696	0.034064
1696.5	0.018229
1697	0
1697.5	0
1698	0
1698.5	0
1699	0
1699.5	0.17566
1700	0.40371
1700.5	0.63098
1701	0.83881
1701.5	1.0239
1702	1.2069
1702.5	1.4195
1703	1.6565
1703.5	1.9106
1704	2.1676
1704.5	2.4028
1705	2.6014
1705.5	2.7576
1706	2.8701
1706.5	2.9443
1707	2.9899
1707.5	3.0269
1708	3.0708
1708.5	3.1303
1709	3.1957
1709.5	3.2466
1710	3.2678
1710.5	3.2714
1711	3.2681
1711.5	3.2794
1712	3.3073
1712.5	3.3259
1713	3.3065
1713.5	3.239
1714	3.1412
1714.5	3.0396
1715	2.9454
1715.5	2.8484
1716	2.7302
1716.5	2.5983
1717	2.4748
1717.5	2.3934
1718	2.3766
1718.5	2.4272
1719	2.5332
1719.5	2.6803
1720	2.8584
1720.5	3.0592
1721	3.2681
1721.5	3.4673
1722	3.6396
1722.5	3.7814
1723	3.9066
1723.5	4.0335
1724	4.1704
1724.5	4.3026
1725	4.4005
1725.5	4.4418
1726	4.4254
1726.5	4.3698
1727	4.283
1727.5	4.1705
1728	4.0336
1728.5	3.8753
1729	3.7033
1729.5	3.5241
1730	3.3407
1730.5	3.1575
1731	2.9838
1731.5	2.8257
1732	2.675
1732.5	2.5203
1733	2.3544
1733.5	2.1849
1734	2.0331
1734.5	1.9119
1735	1.8188
1735.5	1.7381
1736	1.6489
1736.5	1.5303
1737	1.3677
1737.5	1.1584
1738	0.9184
1738.5	0.67297
1739	0.44852
1739.5	0.2671
1740	0.13567
1740.5	0.049752
1741	0.0076688
1741.5	0.045431
1742	0.045749
1742.5	0.0080011
1743	0
1743.5	0
1744	0
1744.5	0.0040277
1745	0.030845
1745.5	0.027737
1746	0.00056357
1746.5	0
1747	0
1747.5	0
1748	0
1748.5	0
1749	0
1749.5	0
1750	0
1750.5	0
1751	0
1751.5	0.14978
1752	0.33938
1752.5	0.53456
1753	0.71269
1753.5	0.84851
1754	0.92904
1754.5	0.96826
1755	0.99158
1755.5	1.0251
1756	1.0674
1756.5	1.1056
1757	1.1333
1757.5	1.143
1758	1.1333
1758.5	1.1019
1759	1.0598
1759.5	1.0109
1760	0.96824
1760.5	0.91852
1761	0.86373
1761.5	0.79015
1762	0.71829
1762.5	0.65171
1763	0.61014
1763.5	0.60257
1764	0.63914
1764.5	0.72817
1765	0.8502
1765.5	0.942
1766	0.97446
1766.5	0.96285
1767	0.94133
1767.5	0.95145
1768	0.9804
1768.5	0.99791
1769	0.98642
1769.5	0.9385
1770	0.84161
1770.5	0.68302
1771	0.49327
1771.5	0.31309
1772	0.20546
1772.5	0.16424
1773	0.12728
1773.5	0.09494
1774	0.094313
1774.5	0.10543
1775	0.09116
1775.5	0.063796
1776	0.033348
1776.5	0.010321
1777	0
