414	23.331
414.5	23.571
415	23.74
415.5	23.839
416	23.874
416.5	23.847
417	23.761
417.5	23.618
418	23.421
418.5	23.171
419	22.872
419.5	22.526
420	22.136
420.5	21.704
421	21.233
421.5	20.726
422	20.185
422.5	19.612
423	19.011
423.5	18.383
424	17.731
424.5	17.058
425	16.367
425.5	15.658
426	14.936
426.5	14.203
427	13.462
427.5	12.714
428	11.962
428.5	11.209
429	10.458
429.5	9.8011
430	9.1651
430.5	8.5498
431	7.9561
431.5	7.3792
432	6.8153
432.5	6.2594
433	5.7082
433.5	5.1585
434	4.6124
434.5	4.0715
435	3.5409
435.5	3.0291
436	2.5424
436.5	2.0873
437	1.6666
437.5	1.2812
438	0.93068
438.5	0.61588
439	0.33864
439.5	0.095881
440	0
440.5	0
441	0
441.5	0
442	0
442.5	0
443	0
443.5	0
444	0
444.5	0
445	0
445.5	0
446	0
446.5	0
447	0
447.5	0
448	0
448.5	0
449	0
449.5	0
450	0
450.5	0
451	0
451.5	0
452	0
452.5	0
453	0.042537
453.5	0.19008
454	0.36358
454.5	0.53429
455	0.69698
455.5	0.84799
456	0.99007
456.5	1.125
457	1.2559
457.5	1.3856
458	1.5138
458.5	1.6407
459	1.763
459.5	1.8761
460	1.9764
460.5	2.0574
461	2.1154
461.5	2.1445
462	2.1432
462.5	2.1115
463	2.0558
463.5	1.9859
464	1.9184
464.5	1.8596
465	1.8246
465.5	1.8235
466	1.8596
466.5	1.9357
467	2.0512
467.5	2.2057
468	2.3998
468.5	2.6224
469	2.8667
469.5	3.1238
470	3.392
470.5	3.6658
471	3.9437
471.5	4.2242
472	4.5058
472.5	4.7851
473	5.0611
473.5	5.3305
474	5.5901
474.5	5.8395
475	6.0812
475.5	6.3044
476	6.5074
476.5	6.6855
477	6.8324
477.5	6.9422
478	7.0076
478.5	7.0229
479	6.9876
479.5	6.9065
480	6.7865
480.5	6.6362
481	6.4616
481.5	6.2638
482	6.0393
482.5	5.7835
483	5.4925
483.5	5.1669
484	4.8127
484.5	4.4399
485	4.0533
485.5	3.6609
486	3.2661
486.5	2.8704
487	2.4745
487.5	2.081
488	1.6941
488.5	1.3221
489	0.96819
489.5	0.64083
490	0.34446
490.5	0.081681
491	0
491.5	0
492	0
492.5	0
493	0
493.5	0
494	0
494.5	0
495	0
495.5	0
496	0
496.5	0
497	0.20903
497.5	0.44535
498	0.70536
498.5	0.99563
499	1.3233
499.5	1.692
500	2.1053
500.5	2.5651
501	3.071
501.5	3.6228
502	4.2178
502.5	4.8508
503	5.5129
503.5	6.1911
504	6.8681
504.5	7.5264
505	8.1506
505.5	8.7312
506	9.2635
506.5	9.7471
507	10.185
507.5	10.58
508	10.933
508.5	11.248
509	11.527
509.5	11.774
510	11.99
510.5	12.177
511	12.334
511.5	12.462
512	12.564
512.5	12.642
513	12.701
513.5	12.745
514	12.778
514.5	12.798
515	12.813
515.5	12.81
516	12.787
516.5	12.742
517	12.679
517.5	12.6
518	12.506
518.5	12.396
519	12.264
519.5	12.107
520	11.914
520.5	11.678
521	11.395
521.5	11.062
522	10.685
522.5	10.265
523	9.8146
523.5	9.3429
524	8.8551
524.5	8.3548
525	7.8458
525.5	7.3319
526	6.8202
526.5	6.3197
527	5.8396
527.5	5.3889
528	4.9728
528.5	4.5969
529	4.2594
529.5	3.9617
530	3.7018
530.5	3.4748
531	3.2746
531.5	3.0884
532	2.901
532.5	2.6991
533	2.4742
533.5	2.2197
534	1.9373
534.5	1.6354
535	1.3239
535.5	1.0115
536	0.70435
536.5	0.4078
537	0.12312
537.5	0
538	0
538.5	0
539	0
539.5	0
540	0
540.5	0
541	0
541.5	0
542	0
542.5	0
543	0
543.5	0
544	0
544.5	0
545	0
545.5	0
546	0
546.5	0
547	0
547.5	0
548	0
548.5	0
549	0
549.5	0
550	0
550.5	0.058302
551	0.22391
551.5	0.39004
552	0.56159
552.5	0.73779
553	0.92771
553.5	1.1278
554	1.3443
554.5	1.5728
555	1.8167
555.5	2.0735
556	2.3415
556.5	2.6216
557	2.9075
557.5	3.1961
558	3.4852
558.5	3.769
559	4.0429
559.5	4.3018
560	4.5474
560.5	4.7714
561	4.9635
561.5	5.1188
562	5.236
562.5	5.3158
563	5.3575
563.5	5.3617
564	5.33
564.5	5.266
565	5.1741
565.5	5.0594
566	4.9346
566.5	4.8018
567	4.6523
567.5	4.4863
568	4.3
568.5	4.0928
569	3.863
569.5	3.61
570	3.3351
570.5	3.0412
571	2.7322
571.5	2.4135
572	2.0908
572.5	1.7713
573	1.4614
573.5	1.1665
574	0.89181
574.5	0.64041
575	0.41321
575.5	0.21046
576	0.028944
576.5	0
577	0
577.5	0
578	0
578.5	0
579	0
579.5	0
580	0
580.5	0
581	0
581.5	0
582	0
582.5	0
583	0.016824
583.5	0.18744
584	0.36272
584.5	0.53446
585	0.69389
585.5	0.84233
586	0.98239
586.5	1.1114
587	1.2282
587.5	1.3421
588	1.4427
588.5	1.5181
589	1.581
589.5	1.6309
590	1.658
590.5	1.6641
591	1.65
591.5	1.6153
592	1.5599
592.5	1.4832
593	1.3866
593.5	1.2742
594	1.1509
594.5	1.0225
595	0.89456
595.5	0.77182
596	0.65892
596.5	0.55883
597	0.47966
597.5	0.42677
598	0.40854
598.5	0.43247
599	0.50799
599.5	0.64404
600	0.85054
600.5	1.1397
601	1.5103
601.5	1.9708
602	2.5205
602.5	3.1551
603	3.8656
603.5	4.6406
604	5.4689
604.5	6.338
605	7.2368
605.5	8.1534
606	9.0833
606.5	10.021
607	10.964
607.5	11.912
608	12.863
608.5	13.811
609	14.746
609.5	15.662
610	16.55
610.5	17.409
611	18.239
611.5	19.043
612	19.823
612.5	20.581
613	21.321
613.5	22.043
614	22.759
614.5	23.47
615	24.182
615.5	24.896
616	25.605
616.5	26.3
617	26.969
617.5	27.601
618	28.189
618.5	28.724
619	29.201
619.5	29.612
620	29.952
620.5	30.215
621	30.397
621.5	30.498
622	30.518
622.5	30.461
623	30.334
623.5	30.146
624	29.906
624.5	29.624
625	29.311
625.5	28.975
626	28.623
626.5	28.257
627	27.882
627.5	27.498
628	27.112
628.5	26.73
629	26.363
629.5	26.014
630	25.689
630.5	25.39
631	25.107
631.5	24.836
632	24.561
632.5	24.272
633	23.956
633.5	23.606
634	23.22
634.5	22.798
635	22.343
635.5	21.865
636	21.374
636.5	20.875
637	20.378
637.5	19.884
638	19.394
638.5	18.911
639	18.44
639.5	17.99
640	17.573
640.5	17.197
641	16.869
641.5	16.588
642	16.352
642.5	16.158
643	16.005
643.5	15.889
644	15.811
644.5	15.765
645	15.738
645.5	15.72
646	15.696
646.5	15.655
647	15.589
647.5	15.493
648	15.369
648.5	15.218
649	15.044
649.5	14.852
650	14.642
650.5	14.419
651	14.18
651.5	13.926
652	13.656
652.5	13.371
653	13.072
653.5	12.759
654	12.432
654.5	12.089
655	11.726
655.5	11.343
656	10.939
656.5	10.517
657	10.082
657.5	9.6417
658	9.202
658.5	8.7685
659	8.344
659.5	7.9267
660	7.5203
660.5	7.1228
661	6.7328
661.5	6.3532
662	5.9868
662.5	5.6364
663	5.3035
663.5	4.9888
664	4.6924
664.5	4.4151
665	4.158
665.5	3.9225
666	3.7098
666.5	3.5197
667	3.3517
667.5	3.2042
668	3.0761
668.5	2.9655
669	2.8697
669.5	2.7852
670	2.7079
670.5	2.6353
671	2.5665
671.5	2.503
672	2.4463
672.5	2.3966
673	2.3521
673.5	2.3059
674	2.252
674.5	2.1836
675	2.0989
675.5	1.9998
676	1.8916
676.5	1.7808
677	1.6734
677.5	1.5734
678	1.4838
678.5	1.4052
679	1.3362
679.5	1.274
680	1.2139
680.5	1.1513
681	1.0824
681.5	1.0047
682	0.91612
682.5	0.81497
683	0.69993
683.5	0.56971
684	0.4245
684.5	0.26666
685	0.10593
685.5	0.030559
686	0
686.5	0
687	0
687.5	0
688	0
688.5	0
689	0
689.5	0
690	0
690.5	0
691	0
691.5	0
692	0
692.5	0
693	0
693.5	0
694	0
694.5	0
695	0
695.5	0
696	0
696.5	0
697	0.20725
697.5	0.48257
698	0.76265
698.5	1.0434
699	1.3219
699.5	1.5961
700	1.8637
700.5	2.1222
701	2.368
701.5	2.5972
702	2.8051
702.5	2.9876
703	3.1421
703.5	3.2688
704	3.3717
704.5	3.4547
705	3.5242
705.5	3.5876
706	3.648
706.5	3.7105
707	3.7761
707.5	3.8437
708	3.9106
708.5	3.9727
709	4.0259
709.5	4.065
710	4.0858
710.5	4.0868
711	4.065
711.5	4.0217
712	3.9601
712.5	3.8874
713	3.8105
713.5	3.7382
714	3.6769
714.5	3.6289
715	3.5925
715.5	3.5633
716	3.5329
716.5	3.4971
717	3.4498
717.5	3.3846
718	3.2996
718.5	3.1962
719	3.0817
719.5	2.9621
720	2.8474
720.5	2.7451
721	2.6583
721.5	2.5906
722	2.5418
722.5	2.5138
723	2.5066
723.5	2.5177
724	2.5348
724.5	2.5572
725	2.5726
725.5	2.5773
726	2.5726
726.5	2.5631
727	2.5546
727.5	2.5505
728	2.5515
728.5	2.5562
729	2.5647
729.5	2.58
730	2.6076
730.5	2.6555
731	2.7328
731.5	2.8442
732	2.9966
732.5	3.1941
733	3.4379
733.5	3.7273
734	4.0603
734.5	4.4343
735	4.8464
735.5	5.2936
736	5.7703
736.5	6.2712
737	6.7844
737.5	7.2979
738	7.7994
738.5	8.2781
739	8.7309
739.5	9.1543
740	9.5499
740.5	9.9229
741	10.275
741.5	10.614
742	10.945
742.5	11.272
743	11.595
743.5	11.912
744	12.215
744.5	12.497
745	12.753
745.5	12.982
746	13.183
746.5	13.359
747	13.511
747.5	13.634
748	13.725
748.5	13.778
749	13.786
749.5	13.741
750	13.644
750.5	13.488
751	13.274
751.5	13.002
752	12.667
752.5	12.275
753	11.825
753.5	11.323
754	10.777
754.5	10.202
755	9.6061
755.5	8.9985
756	8.3848
756.5	7.7707
757	7.1581
757.5	6.5509
758	5.9569
758.5	5.3858
759	4.8456
759.5	4.3417
760	3.8764
760.5	3.4501
761	3.0608
761.5	2.7045
762	2.3801
762.5	2.0804
763	1.7976
763.5	1.5224
764	1.2498
764.5	0.97294
765	0.68989
765.5	0.40028
766	0.10559
766.5	0.038657
767	0.023156
767.5	0.0041435
768	0
768.5	0
769	0
769.5	0
770	0
770.5	0
771	0
771.5	0
772	0
772.5	0
773	0
773.5	0
774	0
774.5	0
775	0
775.5	0
776	0
776.5	0
777	0
777.5	0
778	0
778.5	0
779	0
779.5	0
780	0
780.5	0
781	0
781.5	0.60383
782	1.2526
782.5	1.9364
783	2.6564
783.5	3.4159
784	4.2166
784.5	5.058
785	5.9361
785.5	6.8445
786	7.7745
786.5	8.7154
787	9.6565
787.5	10.585
788	11.488
788.5	12.353
789	13.167
789.5	13.922
790	14.614
790.5	15.244
791	15.813
791.5	16.321
792	16.768
792.5	17.146
793	17.451
793.5	17.68
794	17.837
794.5	17.929
795	17.967
795.5	17.96
796	17.918
796.5	17.849
797	17.763
797.5	17.673
798	17.591
798.5	17.534
799	17.508
799.5	17.527
800	17.596
800.5	17.717
801	17.89
801.5	18.11
802	18.368
802.5	18.66
803	18.978
803.5	19.319
804	19.678
804.5	20.052
805	20.434
805.5	20.822
806	21.209
806.5	21.596
807	21.99
807.5	22.392
808	22.804
808.5	23.218
809	23.628
809.5	24.022
810	24.395
810.5	24.741
811	25.06
811.5	25.354
812	25.621
812.5	25.863
813	26.075
813.5	26.251
814	26.383
814.5	26.463
815	26.486
815.5	26.444
816	26.335
816.5	26.154
817	25.899
817.5	25.569
818	25.167
818.5	24.7
819	24.18
819.5	23.622
820	23.041
820.5	22.448
821	21.848
821.5	21.247
822	20.646
822.5	20.055
823	19.483
823.5	18.945
824	18.449
824.5	18
825	17.601
825.5	17.255
826	16.962
826.5	16.728
827	16.557
827.5	16.449
828	16.399
828.5	16.399
829	16.433
829.5	16.498
830	16.581
830.5	16.677
831	16.782
831.5	16.891
832	17.005
832.5	17.122
833	17.242
833.5	17.364
834	17.485
834.5	17.6
835	17.703
835.5	17.791
836	17.857
836.5	17.901
837	17.921
837.5	17.918
838	17.892
838.5	17.842
839	17.764
839.5	17.655
840	17.509
840.5	17.323
841	17.093
841.5	16.822
842	16.508
842.5	16.152
843	15.758
843.5	15.329
844	14.868
844.5	14.384
845	13.882
845.5	13.365
846	12.833
846.5	12.285
847	11.723
847.5	11.15
848	10.574
848.5	10.002
849	9.4406
849.5	8.8955
850	8.3702
850.5	7.8684
851	7.3899
851.5	6.937
852	6.5056
852.5	6.0943
853	5.695
853.5	5.3027
854	4.9144
854.5	4.5292
855	4.1471
855.5	3.7678
856	3.3905
856.5	3.0138
857	2.6374
857.5	2.2631
858	1.8944
858.5	1.5373
859	1.1986
859.5	0.8869
860	0.60903
860.5	0.37251
861	0.18326
861.5	0.041237
862	0
862.5	0
863	0
863.5	0
864	0.0097117
864.5	0.11707
865	0.24943
865.5	0.3971
866	0.55426
866.5	0.71353
867	0.87145
867.5	1.026
868	1.1751
868.5	1.315
869	1.441
869.5	1.5493
870	1.6383
870.5	1.7112
871	1.7741
871.5	1.8356
872	1.9014
872.5	1.9754
873	2.058
873.5	2.1464
874	2.2384
874.5	2.3313
875	2.4238
875.5	2.5137
876	2.6018
876.5	2.6885
877	2.7746
877.5	2.8611
878	2.9471
878.5	3.0321
879	3.1143
879.5	3.1894
880	3.257
880.5	3.3114
881	3.348
881.5	3.3662
882	3.3636
882.5	3.3421
883	3.3017
883.5	3.2451
884	3.1725
884.5	3.0829
885	2.9755
885.5	2.851
886	2.7132
886.5	2.5707
887	2.4356
887.5	2.3201
888	2.2373
888.5	2.1909
889	2.1868
889.5	2.2236
890	2.2946
890.5	2.3871
891	2.4954
891.5	2.606
892	2.7146
892.5	2.8173
893	2.9132
893.5	3.001
894	3.0786
894.5	3.1431
895	3.1927
895.5	3.2288
896	3.2569
896.5	3.2815
897	3.3099
897.5	3.3464
898	3.3928
898.5	3.4502
899	3.5205
899.5	3.6084
900	3.7224
900.5	3.8732
901	4.0708
901.5	4.3233
902	4.6336
902.5	5.0009
903	5.422
903.5	5.8925
904	6.4095
904.5	6.9718
905	7.5797
905.5	8.2341
906	8.9377
906.5	9.6889
907	10.484
907.5	11.316
908	12.173
908.5	13.047
909	13.927
909.5	14.81
910	15.697
910.5	16.587
911	17.483
911.5	18.391
912	19.317
912.5	20.268
913	21.257
913.5	22.295
914	23.394
914.5	24.565
915	25.813
915.5	27.142
916	28.547
916.5	30.02
917	31.548
917.5	33.108
918	34.677
918.5	36.223
919	37.722
919.5	39.15
920	40.487
920.5	41.726
921	42.864
921.5	43.896
922	44.821
922.5	45.634
923	46.327
923.5	46.894
924	47.333
924.5	47.642
925	47.825
925.5	47.883
926	47.82
926.5	47.637
927	47.335
927.5	46.917
928	46.388
928.5	45.755
929	45.029
929.5	44.22
930	43.342
930.5	42.404
931	41.414
931.5	40.37
932	39.268
932.5	38.106
933	36.882
933.5	35.599
934	34.265
934.5	32.891
935	31.486
935.5	30.057
936	28.607
936.5	27.134
937	25.638
937.5	24.122
938	22.594
938.5	21.069
939	19.562
939.5	18.089
940	16.664
940.5	15.3
941	14.013
941.5	12.819
942	11.738
942.5	10.789
943	9.9862
943.5	9.3372
944	8.8439
944.5	8.4952
945	8.2788
945.5	8.1779
946	8.1726
946.5	8.2445
947	8.3794
947.5	8.5695
948	8.8121
948.5	9.1092
949	9.4608
949.5	9.8662
950	10.32
950.5	10.817
951	11.341
951.5	11.878
952	12.416
952.5	12.943
953	13.457
953.5	13.954
954	14.439
954.5	14.908
955	15.358
955.5	15.783
956	16.174
956.5	16.526
957	16.839
957.5	17.114
958	17.351
958.5	17.55
959	17.71
959.5	17.828
960	17.899
960.5	17.917
961	17.876
961.5	17.768
962	17.589
962.5	17.337
963	17.012
963.5	16.617
964	16.154
964.5	15.625
965	15.028
965.5	14.364
966	13.631
966.5	12.829
967	11.965
967.5	11.048
968	10.089
968.5	9.0997
969	8.0921
969.5	7.0764
970	6.0639
970.5	5.0695
971	4.1111
971.5	3.2098
972	2.3835
972.5	1.6455
973	0.99844
973.5	0.43937
974	0
974.5	0
975	0
975.5	0
976	0
976.5	0
977	0
977.5	0
978	0
978.5	0
979	0
979.5	0
980	0
980.5	0.18128
981	0.5507
981.5	0.94718
982	1.3692
982.5	1.8146
983	2.2782
983.5	2.751
984	3.2181
984.5	3.6759
985	4.1318
985.5	4.557
986	4.9516
986.5	5.3112
987	5.6459
987.5	5.9491
988	6.2239
988.5	6.4678
989	6.682
989.5	6.8706
990	7.0467
990.5	7.2033
991	7.3282
991.5	7.4133
992	7.4527
992.5	7.4406
993	7.3784
993.5	7.262
994	7.091
994.5	6.8666
995	6.5878
995.5	6.2615
996	5.913
996.5	5.5544
997	5.1749
997.5	4.7795
998	4.3722
998.5	3.9576
999	3.5413
999.5	3.13
1000	2.7308
1000.5	2.3464
1001	1.9775
1001.5	1.624
1002	1.2858
1002.5	0.95576
1003	0.63926
1003.5	0.33315
1004	0.049722
1004.5	0
1005	0
1005.5	0
1006	0
1006.5	0
1007	0
1007.5	0
1008	0
1008.5	0
1009	0
1009.5	0
1010	0
1010.5	0
1011	0
1011.5	0
1012	0
1012.5	0
1013	0
1013.5	0
1014	0
1014.5	0
1015	0
1015.5	0
1016	0
1016.5	0
1017	0
1017.5	0
1018	0
1018.5	0
1019	0
1019.5	0
1020	0.064629
1020.5	0.14665
1021	0.22589
1021.5	0.29086
1022	0.50799
1022.5	0.76571
1023	1.0111
1023.5	1.2469
1024	1.4804
1024.5	1.7198
1025	1.9681
1025.5	2.2244
1026	2.4827
1026.5	2.7414
1027	2.9925
1027.5	3.2335
1028	3.4679
1028.5	3.6939
1029	3.915
1029.5	4.1222
1030	4.3151
1030.5	4.4887
1031	4.6499
1031.5	4.8054
1032	4.9701
1032.5	5.1505
1033	5.3551
1033.5	5.5813
1034	5.8296
1034.5	6.096
1035	6.3751
1035.5	6.6615
1036	6.9485
1036.5	7.2338
1037	7.5146
1037.5	7.7899
1038	8.0615
1038.5	8.3304
1039	8.5969
1039.5	8.8596
1040	9.1164
1040.5	9.3679
1041	9.614
1041.5	9.8567
1042	10.099
1042.5	10.344
1043	10.594
1043.5	10.85
1044	11.109
1044.5	11.367
1045	11.616
1045.5	11.847
1046	12.053
1046.5	12.225
1047	12.359
1047.5	12.451
1048	12.503
1048.5	12.513
1049	12.485
1049.5	12.42
1050	12.317
1050.5	12.175
1051	11.997
1051.5	11.789
1052	11.559
1052.5	11.317
1053	11.071
1053.5	10.824
1054	10.576
1054.5	10.32
1055	10.051
1055.5	9.7599
1056	9.4445
1056.5	9.1046
1057	8.744
1057.5	8.37
1058	7.9911
1058.5	7.6144
1059	7.2453
1059.5	6.8873
1060	6.5447
1060.5	6.2226
1061	5.9278
1061.5	5.6675
1062	5.4505
1062.5	5.283
1063	5.1691
1063.5	5.1067
1064	5.1013
1064.5	5.1493
1065	5.2463
1065.5	5.3874
1066	5.5681
1066.5	5.7863
1067	6.0366
1067.5	6.3137
1068	6.6088
1068.5	6.9097
1069	7.2032
1069.5	7.4806
1070	7.7372
1070.5	7.9726
1071	8.186
1071.5	8.3773
1072	8.5523
1072.5	8.7013
1073	8.8173
1073.5	8.8995
1074	8.9375
1074.5	8.9277
1075	8.8743
1075.5	8.7735
1076	8.6257
1076.5	8.4303
1077	8.1877
1077.5	7.8928
1078	7.5447
1078.5	7.1457
1079	6.6995
1079.5	6.2115
1080	5.6879
1080.5	5.1382
1081	4.5716
1081.5	4.0046
1082	3.4555
1082.5	2.9346
1083	2.4317
1083.5	1.9377
1084	1.4581
1084.5	0.98986
1085	0.53564
1085.5	0.10225
1086	0
1086.5	0
1087	0
1087.5	0
1088	0
1088.5	0
1089	0
1089.5	0
1090	0
1090.5	0
1091	0
1091.5	0
1092	0
1092.5	0
1093	0
1093.5	0
1094	0
1094.5	0
1095	0
1095.5	0
1096	0
1096.5	0
1097	0.85057
1097.5	1.7903
1098	2.7856
1098.5	3.8282
1099	4.9095
1099.5	6.0205
1100	7.1533
1100.5	8.3025
1101	9.4645
1101.5	10.637
1102	11.818
1102.5	13.008
1103	14.209
1103.5	15.427
1104	16.667
1104.5	17.935
1105	19.237
1105.5	20.577
1106	21.959
1106.5	23.389
1107	24.88
1107.5	26.445
1108	28.095
1108.5	29.841
1109	31.683
1109.5	33.626
1110	35.669
1110.5	37.809
1111	40.041
1111.5	42.358
1112	44.746
1112.5	47.179
1113	49.632
1113.5	52.075
1114	54.485
1114.5	56.845
1115	59.146
1115.5	61.383
1116	63.549
1116.5	65.636
1117	67.635
1117.5	69.536
1118	71.333
1118.5	73.022
1119	74.6
1119.5	76.063
1120	77.406
1120.5	78.625
1121	79.717
1121.5	80.67
1122	81.48
1122.5	82.147
1123	82.671
1123.5	83.056
1124	83.307
1124.5	83.422
1125	83.396
1125.5	83.218
1126	82.877
1126.5	82.362
1127	81.667
1127.5	80.793
1128	79.741
1128.5	78.514
1129	77.119
1129.5	75.568
1130	73.876
1130.5	72.062
1131	70.146
1131.5	68.144
1132	66.077
1132.5	63.966
1133	61.834
1133.5	59.712
1134	57.628
1134.5	55.606
1135	53.669
1135.5	51.831
1136	50.108
1136.5	48.508
1137	47.036
1137.5	45.693
1138	44.476
1138.5	43.382
1139	42.406
1139.5	41.551
1140	40.81
1140.5	40.175
1141	39.631
1141.5	39.164
1142	38.761
1142.5	38.416
1143	38.13
1143.5	37.908
1144	37.75
1144.5	37.657
1145	37.624
1145.5	37.64
1146	37.7
1146.5	37.792
1147	37.908
1147.5	38.038
1148	38.176
1148.5	38.316
1149	38.456
1149.5	38.596
1150	38.74
1150.5	38.891
1151	39.052
1151.5	39.222
1152	39.403
1152.5	39.591
1153	39.786
1153.5	39.981
1154	40.175
1154.5	40.365
1155	40.547
1155.5	40.721
1156	40.885
1156.5	41.038
1157	41.179
1157.5	41.305
1158	41.411
1158.5	41.493
1159	41.55
1159.5	41.582
1160	41.59
1160.5	41.577
1161	41.544
1161.5	41.491
1162	41.426
1162.5	41.355
1163	41.279
1163.5	41.197
1164	41.096
1164.5	40.965
1165	40.79
1165.5	40.561
1166	40.27
1166.5	39.911
1167	39.482
1167.5	38.982
1168	38.412
1168.5	37.777
1169	37.081
1169.5	36.326
1170	35.504
1170.5	34.616
1171	33.655
1171.5	32.621
1172	31.517
1172.5	30.347
1173	29.112
1173.5	27.813
1174	26.448
1174.5	25.019
1175	23.532
1175.5	21.997
1176	20.423
1176.5	18.815
1177	17.181
1177.5	15.531
1178	13.88
1178.5	12.25
1179	10.663
1179.5	9.1415
1180	7.7038
1180.5	6.3638
1181	5.1324
1181.5	4.0178
1182	3.0269
1182.5	2.1643
1183	1.4339
1183.5	0.83253
1184	0.36417
1184.5	0.022377
1185	0
1185.5	0
1186	0
1186.5	0
1187	0
1187.5	0.06503
1188	0.35043
1188.5	0.70468
1189	1.12
1189.5	1.5851
1190	2.0913
1190.5	2.6338
1191	3.2121
1191.5	3.8273
1192	4.4778
1192.5	5.1573
1193	5.856
1193.5	6.5637
1194	7.2735
1194.5	7.9818
1195	8.6896
1195.5	9.3971
1196	10.106
1196.5	10.814
1197	11.522
1197.5	12.23
1198	12.94
1198.5	13.652
1199	14.363
1199.5	15.07
1200	15.768
1200.5	16.454
1201	17.115
1201.5	17.755
1202	18.37
1202.5	18.957
1203	19.513
1203.5	20.033
1204	20.512
1204.5	20.95
1205	21.348
1205.5	21.713
1206	22.05
1206.5	22.37
1207	22.682
1207.5	22.996
1208	23.32
1208.5	23.656
1209	24.001
1209.5	24.352
1210	24.706
1210.5	25.065
1211	25.433
1211.5	25.818
1212	26.22
1212.5	26.639
1213	27.069
1213.5	27.503
1214	27.941
1214.5	28.383
1215	28.828
1215.5	29.276
1216	29.721
1216.5	30.159
1217	30.583
1217.5	30.986
1218	31.359
1218.5	31.693
1219	31.979
1219.5	32.211
1220	32.392
1220.5	32.525
1221	32.618
1221.5	32.673
1222	32.688
1222.5	32.657
1223	32.569
1223.5	32.426
1224	32.225
1224.5	31.966
1225	31.653
1225.5	31.288
1226	30.87
1226.5	30.403
1227	29.888
1227.5	29.332
1228	28.735
1228.5	28.1
1229	27.42
1229.5	26.697
1230	25.931
1230.5	25.129
1231	24.302
1231.5	23.468
1232	22.632
1232.5	21.805
1233	20.989
1233.5	20.193
1234	19.429
1234.5	18.713
1235	18.065
1235.5	17.499
1236	17.02
1236.5	16.628
1237	16.319
1237.5	16.086
1238	15.929
1238.5	15.849
1239	15.851
1239.5	15.941
1240	16.124
1240.5	16.402
1241	16.774
1241.5	17.239
1242	17.79
1242.5	18.428
1243	19.151
1243.5	19.952
1244	20.821
1244.5	21.744
1245	22.7
1245.5	23.668
1246	24.633
1246.5	25.585
1247	26.521
1247.5	27.446
1248	28.358
1248.5	29.263
1249	30.16
1249.5	31.052
1250	31.933
1250.5	32.8
1251	33.64
1251.5	34.443
1252	35.195
1252.5	35.884
1253	36.505
1253.5	37.056
1254	37.531
1254.5	37.937
1255	38.28
1255.5	38.564
1256	38.794
1256.5	38.973
1257	39.102
1257.5	39.181
1258	39.208
1258.5	39.186
1259	39.114
1259.5	38.996
1260	38.834
1260.5	38.63
1261	38.384
1261.5	38.094
1262	37.763
1262.5	37.393
1263	36.991
1263.5	36.567
1264	36.131
1264.5	35.688
1265	35.233
1265.5	34.759
1266	34.254
1266.5	33.712
1267	33.13
1267.5	32.505
1268	31.836
1268.5	31.116
1269	30.339
1269.5	29.501
1270	28.605
1270.5	27.658
1271	26.668
1271.5	25.641
1272	24.581
1272.5	23.488
1273	22.362
1273.5	21.201
1274	20.008
1274.5	18.792
1275	17.563
1275.5	16.338
1276	15.138
1276.5	13.977
1277	12.866
1277.5	11.81
1278	10.802
1278.5	9.8407
1279	8.9202
1279.5	8.0367
1280	7.1898
1280.5	6.3786
1281	5.6018
1281.5	4.8561
1282	4.1392
1282.5	3.4499
1283	2.7902
1283.5	2.1664
1284	1.5861
1284.5	1.0607
1285	0.59364
1285.5	0.18287
1286	0
1286.5	0
1287	0
1287.5	0
1288	0
1288.5	0
1289	0
1289.5	0
1290	0
1290.5	0
1291	0
1291.5	0
1292	0
1292.5	0
1293	0
1293.5	0
1294	0
1294.5	0
1295	0
1295.5	0.0412
1296	0.087088
1296.5	0.12961
1297	0.15781
1297.5	0.16551
1298	0.14765
1298.5	0.10822
1299	0.059484
1299.5	0.012857
1300	0
1300.5	0
1301	0
1301.5	0
1302	0
1302.5	0
1303	0
1303.5	0
1304	0
1304.5	0
1305	0
1305.5	0
1306	0
1306.5	0
1307	0
1307.5	0
1308	0.035822
1308.5	0.51192
1309	1.0351
1309.5	1.5989
1310	2.1923
1310.5	2.8054
1311	3.4257
1311.5	4.0465
1312	4.6686
1312.5	5.2972
1313	5.9308
1313.5	6.5717
1314	7.2245
1314.5	7.8902
1315	8.5752
1315.5	9.2902
1316	10.04
1316.5	10.831
1317	11.666
1317.5	12.542
1318	13.46
1318.5	14.419
1319	15.418
1319.5	16.457
1320	17.528
1320.5	18.63
1321	19.761
1321.5	20.918
1322	22.103
1322.5	23.317
1323	24.559
1323.5	25.828
1324	27.117
1324.5	28.421
1325	29.729
1325.5	31.03
1326	32.313
1326.5	33.567
1327	34.784
1327.5	35.963
1328	37.096
1328.5	38.177
1329	39.197
1329.5	40.151
1330	41.032
1330.5	41.835
1331	42.554
1331.5	43.186
1332	43.725
1332.5	44.167
1333	44.503
1333.5	44.728
1334	44.839
1334.5	44.832
1335	44.705
1335.5	44.456
1336	44.084
1336.5	43.59
1337	42.971
1337.5	42.219
1338	41.334
1338.5	40.307
1339	39.145
1339.5	37.85
1340	36.434
1340.5	34.906
1341	33.286
1341.5	31.58
1342	29.804
1342.5	27.973
1343	26.1
1343.5	24.208
1344	22.308
1344.5	20.413
1345	18.535
1345.5	16.676
1346	14.839
1346.5	13.044
1347	11.29
1347.5	9.59
1348	7.9592
1348.5	6.3984
1349	4.9085
1349.5	3.499
1350	2.1589
1350.5	0.89678
1351	0
1351.5	0
1352	0
1352.5	0
1353	0
1353.5	0
1354	0
1354.5	0
1355	0
1355.5	0
1356	0
1356.5	0
1357	0
1357.5	0
1358	0
1358.5	0
1359	0
1359.5	0
1360	0
1360.5	0
1361	0
1361.5	0
1362	0
1362.5	0
1363	0
1363.5	0.0014809
1364	0.31442
1364.5	0.65018
1365	1.0008
1365.5	1.3595
1366	1.706
1366.5	2.0338
1367	2.3208
1367.5	2.8121
1368	3.3927
1368.5	3.9412
1369	4.4646
1369.5	4.9667
1370	5.445
1370.5	5.8995
1371	6.3252
1371.5	6.7202
1372	7.0819
1372.5	7.4068
1373	7.6908
1373.5	7.9285
1374	8.12
1374.5	8.2714
1375	8.3931
1375.5	8.4938
1376	8.5717
1376.5	8.6289
1377	8.6638
1377.5	8.6762
1378	8.669
1378.5	8.6494
1379	8.6265
1379.5	8.6106
1380	8.614
1380.5	8.6514
1381	8.7422
1381.5	8.9055
1382	9.1589
1382.5	9.5153
1383	9.9828
1383.5	10.567
1384	11.271
1384.5	12.097
1385	13.042
1385.5	14.102
1386	15.274
1386.5	16.557
1387	17.952
1387.5	19.46
1388	21.083
1388.5	22.814
1389	24.649
1389.5	26.578
1390	28.591
1390.5	30.68
1391	32.833
1391.5	35.047
1392	37.317
1392.5	39.635
1393	41.993
1393.5	44.375
1394	46.769
1394.5	49.16
1395	51.54
1395.5	53.908
1396	56.264
1396.5	58.606
1397	60.935
1397.5	63.258
1398	65.575
1398.5	67.887
1399	70.183
1399.5	72.446
1400	74.655
1400.5	76.789
1401	78.828
1401.5	80.752
1402	82.545
1402.5	84.193
1403	85.686
1403.5	87.019
1404	88.191
1404.5	89.198
1405	90.029
1405.5	90.674
1406	91.121
1406.5	91.366
1407	91.414
1407.5	91.277
1408	90.969
1408.5	90.507
1409	89.909
1409.5	89.188
1410	88.365
1410.5	87.453
1411	86.464
1411.5	85.399
1412	84.262
1412.5	83.054
1413	81.779
1413.5	80.442
1414	79.052
1414.5	77.613
1415	76.134
1415.5	74.623
1416	73.096
1416.5	71.565
1417	70.04
1417.5	68.523
1418	67.015
1418.5	65.517
1419	64.032
1419.5	62.565
1420	61.122
1420.5	59.709
1421	58.331
1421.5	56.991
1422	55.69
1422.5	54.428
1423	53.208
1423.5	52.036
1424	50.925
1424.5	49.884
1425	48.92
1425.5	48.035
1426	47.218
1426.5	46.459
1427	45.748
1427.5	45.072
1428	44.418
1428.5	43.775
1429	43.134
1429.5	42.492
1430	41.852
1430.5	41.21
1431	40.562
1431.5	39.898
1432	39.204
1432.5	38.466
1433	37.683
1433.5	36.859
1434	36
1434.5	35.109
1435	34.189
1435.5	33.245
1436	32.287
1436.5	31.329
1437	30.391
1437.5	29.486
1438	28.623
1438.5	27.808
1439	27.043
1439.5	26.331
1440	25.677
1440.5	25.082
1441	24.553
1441.5	24.104
1442	23.76
1442.5	23.54
1443	23.455
1443.5	23.506
1444	23.684
1444.5	23.978
1445	24.383
1445.5	24.902
1446	25.534
1446.5	26.272
1447	27.109
1447.5	28.034
1448	29.046
1448.5	30.145
1449	31.328
1449.5	32.601
1450	33.949
1450.5	35.357
1451	36.811
1451.5	38.297
1452	39.798
1452.5	41.292
1453	42.753
1453.5	44.149
1454	45.452
1454.5	46.636
1455	47.683
1455.5	48.582
1456	49.324
1456.5	49.915
1457	50.348
1457.5	50.613
1458	50.704
1458.5	50.616
1459	50.346
1459.5	49.9
1460	49.271
1460.5	48.452
1461	47.446
1461.5	46.255
1462	44.89
1462.5	43.371
1463	41.717
1463.5	39.939
1464	38.046
1464.5	36.044
1465	33.941
1465.5	31.753
1466	29.497
1466.5	27.191
1467	24.85
1467.5	22.491
1468	20.136
1468.5	17.808
1469	15.528
1469.5	13.315
1470	11.182
1470.5	9.1441
1471	7.218
1471.5	5.4223
1472	3.7683
1472.5	2.2611
1473	0.89504
1473.5	0
1474	0
1474.5	0
1475	0
1475.5	0
1476	0
1476.5	0
1477	0
1477.5	0
1478	0
1478.5	0
1479	0
1479.5	0
1480	0.82589
1480.5	2.2632
1481	3.8225
1481.5	5.484
1482	7.2271
1482.5	9.0361
1483	10.897
1483.5	12.795
1484	14.721
1484.5	16.664
1485	18.617
1485.5	20.563
1486	22.486
1486.5	24.364
1487	26.18
1487.5	27.928
1488	29.608
1488.5	31.226
1489	32.783
1489.5	34.278
1490	35.698
1490.5	37.037
1491	38.287
1491.5	39.447
1492	40.514
1492.5	41.484
1493	42.351
1493.5	43.108
1494	43.754
1494.5	44.287
1495	44.706
1495.5	45.016
1496	45.22
1496.5	45.324
1497	45.337
1497.5	45.264
1498	45.098
1498.5	44.843
1499	44.507
1499.5	44.1
1500	43.634
1500.5	43.128
1501	42.598
1501.5	42.058
1502	41.521
1502.5	41
1503	40.509
1503.5	40.068
1504	39.7
1504.5	39.425
1505	39.249
1505.5	39.174
1506	39.198
1506.5	39.316
1507	39.52
1507.5	39.81
1508	40.194
1508.5	40.67
1509	41.238
1509.5	41.89
1510	42.614
1510.5	43.402
1511	44.25
1511.5	45.158
1512	46.13
1512.5	47.163
1513	48.251
1513.5	49.378
1514	50.532
1514.5	51.703
1515	52.886
1515.5	54.075
1516	55.27
1516.5	56.466
1517	57.663
1517.5	58.86
1518	60.059
1518.5	61.259
1519	62.452
1519.5	63.629
1520	64.781
1520.5	65.902
1521	66.991
1521.5	68.05
1522	69.08
1522.5	70.08
1523	71.051
1523.5	71.989
1524	72.899
1524.5	73.778
1525	74.628
1525.5	75.447
1526	76.238
1526.5	77.003
1527	77.748
1527.5	78.484
1528	79.222
1528.5	79.97
1529	80.728
1529.5	81.491
1530	82.247
1530.5	82.992
1531	83.726
1531.5	84.457
1532	85.201
1532.5	85.977
1533	86.794
1533.5	87.66
1534	88.568
1534.5	89.506
1535	90.457
1535.5	91.4
1536	92.32
1536.5	93.207
1537	94.055
1537.5	94.862
1538	95.626
1538.5	96.333
1539	96.977
1539.5	97.542
1540	98.022
1540.5	98.421
1541	98.754
1541.5	99.04
1542	99.292
1542.5	99.516
1543	99.705
1543.5	99.852
1544	99.951
1544.5	100
1545	99.995
1545.5	99.93
1546	99.798
1546.5	99.595
1547	99.322
1547.5	98.986
1548	98.59
1548.5	98.133
1549	97.606
1549.5	97.002
1550	96.314
1550.5	95.545
1551	94.702
1551.5	93.796
1552	92.84
1552.5	91.843
1553	90.812
1553.5	89.745
1554	88.641
1554.5	87.493
1555	86.301
1555.5	85.072
1556	83.817
1556.5	82.549
1557	81.278
1557.5	80.011
1558	78.752
1558.5	77.499
1559	76.254
1559.5	75.02
1560	73.803
1560.5	72.618
1561	71.479
1561.5	70.402
1562	69.4
1562.5	68.476
1563	67.625
1563.5	66.839
1564	66.106
1564.5	65.415
1565	64.759
1565.5	64.134
1566	63.543
1566.5	62.994
1567	62.497
1567.5	62.058
1568	61.676
1568.5	61.344
1569	61.056
1569.5	60.817
1570	60.637
1570.5	60.533
1571	60.515
1571.5	60.581
1572	60.718
1572.5	60.902
1573	61.111
1573.5	61.325
1574	61.529
1574.5	61.715
1575	61.882
1575.5	62.028
1576	62.154
1576.5	62.254
1577	62.324
1577.5	62.353
1578	62.333
1578.5	62.255
1579	62.113
1579.5	61.902
1580	61.624
1580.5	61.286
1581	60.899
1581.5	60.47
1582	59.998
1582.5	59.472
1583	58.882
1583.5	58.221
1584	57.491
1584.5	56.702
1585	55.867
1585.5	54.997
1586	54.1
1586.5	53.179
1587	52.235
1587.5	51.271
1588	50.287
1588.5	49.286
1589	48.27
1589.5	47.247
1590	46.228
1590.5	45.229
1591	44.259
1591.5	43.327
1592	42.43
1592.5	41.567
1593	40.735
1593.5	39.936
1594	39.176
1594.5	38.46
1595	37.792
1595.5	37.173
1596	36.605
1596.5	36.084
1597	35.607
1597.5	35.171
1598	34.775
1598.5	34.421
1599	34.118
1599.5	33.871
1600	33.684
1600.5	33.552
1601	33.465
1601.5	33.411
1602	33.375
1602.5	33.348
1603	33.323
1603.5	33.304
1604	33.292
1604.5	33.285
1605	33.272
1605.5	33.24
1606	33.176
1606.5	33.073
1607	32.928
1607.5	32.737
1608	32.499
1608.5	32.208
1609	31.866
1609.5	31.476
1610	31.048
1610.5	30.583
1611	30.079
1611.5	29.527
1612	28.918
1612.5	28.248
1613	27.521
1613.5	26.745
1614	25.926
1614.5	25.07
1615	24.179
1615.5	23.252
1616	22.287
1616.5	21.283
1617	20.243
1617.5	19.173
1618	18.082
1618.5	16.981
1619	15.88
1619.5	14.784
1620	13.699
1620.5	12.624
1621	11.558
1621.5	10.499
1622	9.4531
1622.5	8.4274
1623	7.4337
1623.5	6.4802
1624	5.5694
1624.5	4.6989
1625	3.8651
1625.5	3.0657
1626	2.302
1626.5	1.5772
1627	0.89431
1627.5	0.25407
1628	0
1628.5	0
1629	0
1629.5	0
1630	0
1630.5	0
1631	0
1631.5	0
1632	0
1632.5	0
1633	0
1633.5	0
1634	0
1634.5	0
1635	0
1635.5	0
1636	0
1636.5	0
1637	0
1637.5	0
1638	0
1638.5	0
1639	0
1639.5	0
1640	0
1640.5	0
1641	0
1641.5	0
1642	0
1642.5	0
1643	0
1643.5	0
1644	0
1644.5	0
1645	0
1645.5	0
1646	0
1646.5	0
1647	0
1647.5	0
1648	0
1648.5	0
1649	0
1649.5	0
1650	0
1650.5	0
1651	0
1651.5	0
1652	0
1652.5	0
1653	0
1653.5	0
1654	0
1654.5	0
1655	0
1655.5	0
1656	0
1656.5	0
1657	0
1657.5	0
1658	0
1658.5	0
1659	0
1659.5	0
1660	0
1660.5	0
1661	0
1661.5	0
1662	0
1662.5	0
1663	0
1663.5	0
1664	0
1664.5	0
1665	0
1665.5	0.0074018
1666	0.035689
1666.5	0.058383
1667	0.068479
1667.5	0.064319
1668	0.04919
1668.5	0.028318
1669	0.0076705
1669.5	0
1670	0
1670.5	0
1671	0
1671.5	0
1672	0
1672.5	9.4315e-05
1673	0
1673.5	0
1674	0
1674.5	0
1675	0
1675.5	0
1676	0
1676.5	0
1677	0
1677.5	0
1678	0
1678.5	0
1679	0
1679.5	0
1680	0
1680.5	0
1681	0
1681.5	0.00019526
1682	0
1682.5	0
1683	0
1683.5	0
1684	0
1684.5	0
1685	0
1685.5	0
1686	0
1686.5	0
1687	0
1687.5	0
1688	0
1688.5	0
1689	0
1689.5	0
1690	0
1690.5	0
1691	0
1691.5	0
1692	0
1692.5	0
1693	0
1693.5	0
1694	0
1694.5	0
1695	0
1695.5	0
1696	0
1696.5	0
1697	0
1697.5	0
1698	0
1698.5	0
1699	0.098713
1699.5	0.23414
1700	0.37196
1700.5	0.50874
1701	0.64453
1701.5	0.77934
1702	0.9134
1702.5	1.0459
1703	1.172
1703.5	1.2918
1704	1.4065
1704.5	1.5199
1705	1.6321
1705.5	1.7391
1706	1.8358
1706.5	1.9197
1707	1.9928
1707.5	2.0585
1708	2.122
1708.5	2.1849
1709	2.2486
1709.5	2.3133
1710	2.3781
1710.5	2.4403
1711	2.4946
1711.5	2.5384
1712	2.5717
1712.5	2.6015
1713	2.6316
1713.5	2.6666
1714	2.7062
1714.5	2.745
1715	2.7785
1715.5	2.8055
1716	2.8287
1716.5	2.8516
1717	2.8752
1717.5	2.8981
1718	2.9181
1718.5	2.9339
1719	2.9443
1719.5	2.9494
1720	2.9511
1720.5	2.9554
1721	2.9657
1721.5	2.9849
1722	3.009
1722.5	3.0289
1723	3.0364
1723.5	3.0303
1724	3.017
1724.5	3.0037
1725	2.9927
1725.5	2.9813
1726	2.965
1726.5	2.9417
1727	2.9118
1727.5	2.8767
1728	2.836
1728.5	2.789
1729	2.7346
1729.5	2.6729
1730	2.6047
1730.5	2.5313
1731	2.4529
1731.5	2.3679
1732	2.2743
1732.5	2.1713
1733	2.0609
1733.5	1.9463
1734	1.8295
1734.5	1.7088
1735	1.58
1735.5	1.4416
1736	1.297
1736.5	1.1526
1737	1.0155
1737.5	0.88968
1738	0.77339
1738.5	0.66142
1739	0.55164
1739.5	0.44217
1740	0.33434
1740.5	0.23117
1741	0.13529
1741.5	0.049972
1742	0
1742.5	0
1743	0
1743.5	0
1744	0
1744.5	0
1745	0
1745.5	0
1746	0
1746.5	0
1747	0
1747.5	0
1748	0
1748.5	0
1749	0
1749.5	0
1750	0
1750.5	0.01054
1751	0.019622
1751.5	0.017294
1752	0.0065907
1752.5	0
1753	0
1753.5	0.015772
1754	0.05532
1754.5	0.1061
1755	0.15927
1755.5	0.20508
1756	0.23835
1756.5	0.26202
1757	0.28061
1757.5	0.30138
1758	0.32646
1758.5	0.35444
1759	0.38456
1759.5	0.41647
1760	0.44839
1760.5	0.47869
1761	0.49827
1761.5	0.51049
1762	0.52296
1762.5	0.52118
1763	0.5158
1763.5	0.50782
1764	0.4986
1764.5	0.48824
1765	0.4769
1765.5	0.46418
1766	0.44919
1766.5	0.43097
1767	0.4106
1767.5	0.38676
1768	0.35966
1768.5	0.33051
1769	0.29921
1769.5	0.26544
1770	0.22957
1770.5	0.19231
1771	0.15457
1771.5	0.11734
1772	0.084116
1772.5	0.057471
1773	0.038481
1773.5	0.026822
1774	0.017913
1774.5	0.011256
1775	0.0064967
1775.5	0.0032994
1776	0.0013483
1776.5	0.00034282
1777	0
