414	17.234
414.5	14.691
415	12.629
415.5	11.02
416	9.832
416.5	9.0372
417	8.6056
417.5	8.5076
418	8.7137
418.5	9.1942
419	9.9195
419.5	10.44
420	11.341
420.5	12.606
421	14.228
421.5	16.229
422	18.566
422.5	21.104
423	23.599
423.5	25.774
424	27.409
424.5	28.42
425	28.83
425.5	28.773
426	28.379
426.5	27.722
427	26.796
427.5	25.6
428	24.131
428.5	22.54
429	20.866
429.5	19.334
430	18.139
430.5	17.44
431	17.284
431.5	17.656
432	18.408
432.5	19.307
433	20.089
433.5	20.534
434	20.496
434.5	19.964
435	19.005
435.5	17.756
436	16.387
436.5	15.023
437	13.739
437.5	12.554
438	11.454
438.5	10.388
439	9.332
439.5	8.3125
440	7.4107
440.5	6.7274
441	6.3229
441.5	6.1783
442	6.1861
442.5	6.1946
443	6.0521
443.5	5.6635
444	5.0049
444.5	4.1331
445	3.122
445.5	2.0657
446	1.0392
446.5	0.057321
447	0.02676
447.5	0.10493
448	0.22991
448.5	0.15116
449	0.013625
449.5	0
450	0
450.5	0
451	0
451.5	0
452	0
452.5	0
453	0
453.5	0
454	0
454.5	0
455	0
455.5	0
456	0
456.5	0
457	0.14425
457.5	0.56431
458	0.70613
458.5	1.3951
459	2.9931
459.5	4.487
460	6.1141
460.5	8.0127
461	10.229
461.5	12.828
462	15.856
462.5	19.45
463	23.764
463.5	28.89
464	34.806
464.5	41.364
465	48.293
465.5	55.296
466	62.174
466.5	68.686
467	74.559
467.5	79.526
468	83.246
468.5	85.385
469	85.731
469.5	84.305
470	81.387
470.5	77.317
471	72.665
471.5	67.8
472	62.955
472.5	58.207
473	53.474
473.5	48.632
474	43.623
474.5	38.52
475	33.528
475.5	28.922
476	24.89
476.5	21.463
477	18.444
477.5	15.496
478	12.332
478.5	8.8206
479	5.0278
479.5	1.2884
480	0
480.5	0
481	0
481.5	0
482	0
482.5	0
483	0.0085012
483.5	0
484	0
484.5	0
485	0
485.5	0
486	0
486.5	0.10164
487	2.4949
487.5	4.8953
488	7.2196
488.5	9.4705
489	11.681
489.5	13.819
490	15.885
490.5	17.835
491	19.603
491.5	21.157
492	22.529
492.5	23.708
493	24.791
493.5	25.875
494	27.02
494.5	28.249
495	29.528
495.5	30.787
496	31.945
496.5	32.913
497	33.688
497.5	34.342
498	34.945
498.5	35.589
499	36.259
499.5	36.886
500	37.346
500.5	37.503
501	37.255
501.5	36.529
502	35.29
502.5	33.52
503	31.238
503.5	28.483
504	25.37
504.5	22.044
505	18.645
505.5	15.276
506	12.026
506.5	8.9882
507	6.2399
507.5	3.9703
508	2.2353
508.5	1.0948
509	0.45266
509.5	0.15423
510	0.029065
510.5	0
511	0
511.5	0.050345
512	0.55991
512.5	1.6993
513	3.7339
513.5	6.8771
514	11.298
514.5	17.122
515	24.112
515.5	32.113
516	40.808
516.5	49.769
517	58.58
517.5	66.909
518	74.342
518.5	80.585
519	85.368
519.5	88.466
520	89.752
520.5	89.2
521	86.932
521.5	83.119
522	78.036
522.5	71.989
523	65.394
523.5	58.715
524	52.378
524.5	46.687
525	41.713
525.5	37.512
526	33.842
526.5	30.532
527	27.552
527.5	24.983
528	22.971
528.5	21.511
529	20.452
529.5	19.526
530	18.425
530.5	16.916
531	14.93
531.5	12.504
532	9.7653
532.5	6.8643
533	3.9601
533.5	1.1552
534	0
534.5	0
535	0
535.5	0
536	0
536.5	0
537	0
537.5	0
538	0
538.5	0
539	0
539.5	0
540	0.78681
540.5	1.8585
541	2.6283
541.5	3.1253
542	3.1442
542.5	2.7086
543	1.8837
543.5	0.9765
544	0.22794
544.5	0
545	0
545.5	0
546	0
546.5	0
547	0
547.5	0
548	1.1211
548.5	4.1759
549	7.9408
549.5	11.818
550	15.23
550.5	17.766
551	19.262
551.5	19.793
552	19.429
552.5	18.422
553	16.959
553.5	15.157
554	13.067
554.5	10.753
555	8.3198
555.5	5.9841
556	3.9685
556.5	2.6291
557	2.2025
557.5	2.7341
558	3.967
558.5	5.6065
559	7.195
559.5	8.3698
560	8.9686
560.5	9.0565
561	8.8402
561.5	8.583
562	8.3935
562.5	8.4434
563	8.7357
563.5	9.1652
564	9.61
564.5	9.9492
565	10.23
565.5	10.437
566	10.628
566.5	10.83
567	11.073
567.5	11.316
568	11.482
568.5	11.29
569	10.42
569.5	8.875
570	6.6272
570.5	3.9523
571	1.2988
571.5	0
572	0
572.5	0
573	0
573.5	0
574	0
574.5	0
575	0
575.5	0
576	0
576.5	0
577	3.776
577.5	8.9751
578	14.066
578.5	18.673
579	22.664
579.5	26.118
580	29.124
580.5	31.899
581	34.31
581.5	36.149
582	37.172
582.5	37.187
583	36.048
583.5	33.887
584	30.86
584.5	27.291
585	23.486
585.5	19.664
586	15.964
586.5	12.325
587	8.7732
587.5	5.3605
588	2.242
588.5	0
589	0
589.5	0
590	0
590.5	0
591	1.8064
591.5	4.8213
592	8.0511
592.5	11.323
593	14.658
593.5	18.265
594	22.216
594.5	26.58
595	31.186
595.5	35.72
596	39.788
596.5	43.096
597	45.405
597.5	46.695
598	47.09
598.5	46.877
599	46.281
599.5	45.678
600	45.163
600.5	44.603
601	43.663
601.5	42.1
602	39.88
602.5	37.17
603	34.315
603.5	31.661
604	29.348
604.5	27.237
605	24.95
605.5	22.075
606	18.456
606.5	14.165
607	9.522
607.5	5.0863
608	1.3729
608.5	0
609	0
609.5	0
610	0
610.5	0
611	0
611.5	0
612	0
612.5	0
613	1.0635
613.5	2.6096
614	4.4546
614.5	6.3925
615	8.2376
615.5	9.5477
616	10.398
616.5	10.751
617	10.752
617.5	10.607
618	10.515
618.5	10.459
619	10.378
619.5	10.22
620	9.7146
620.5	8.854
621	7.3905
621.5	5.4946
622	3.4856
622.5	1.6726
623	0.21011
623.5	0
624	0
624.5	0
625	0
625.5	0
626	0
626.5	0
627	0
627.5	0
628	0.85549
628.5	2.4247
629	4.3088
629.5	6.3105
630	8.2538
630.5	10.101
631	11.821
631.5	13.603
632	15.611
632.5	17.844
633	20.148
633.5	22.314
634	24.15
634.5	25.573
635	26.63
635.5	27.417
636	27.978
636.5	28.274
637	28.168
637.5	27.683
638	26.722
638.5	25.355
639	23.742
639.5	22.081
640	20.587
640.5	19.49
641	19.007
641.5	19.317
642	20.427
642.5	22.244
643	24.542
643.5	27.121
644	29.779
644.5	32.482
645	35.283
645.5	38.285
646	41.373
646.5	44.503
647	47.462
647.5	50.088
648	52.095
648.5	53.417
649	54.068
649.5	54.11
650	53.645
650.5	52.773
651	51.526
651.5	49.857
652	47.622
652.5	44.737
653	41.106
653.5	36.83
654	32.089
654.5	27.256
655	22.688
655.5	18.666
656	15.284
656.5	12.675
657	10.739
657.5	9.4334
658	8.6908
658.5	8.4329
659	8.5612
659.5	8.9324
660	9.4214
660.5	9.8597
661	10.111
661.5	10.101
662	9.8071
662.5	9.241
663	8.4251
663.5	7.3894
664	6.1652
664.5	4.7814
665	3.3621
665.5	1.9858
666	0.78264
666.5	0
667	0
667.5	0
668	0
668.5	0.3265
669	1.6289
669.5	3.4523
670	5.852
670.5	8.7753
671	12.056
671.5	15.45
672	18.688
672.5	21.512
673	23.725
673.5	25.18
674	25.769
674.5	25.488
675	24.246
675.5	22.033
676	19.052
676.5	15.542
677	11.786
677.5	8.0312
678	4.5524
678.5	1.4936
679	0
679.5	0
680	0
680.5	0
681	0
681.5	0
682	0
682.5	0
683	0
683.5	0.5483
684	1.1492
684.5	1.4617
685	1.4496
685.5	1.1886
686	0.80502
686.5	0.42851
687	0.20854
687.5	0.055752
688	0.040395
688.5	0
689	0
689.5	0
690	0
690.5	0
691	0
691.5	0.3118
692	0.75233
692.5	0.77767
693	0.39833
693.5	0
694	0
694.5	0
695	0
695.5	0
696	0
696.5	0.46972
697	3.8401
697.5	7.7717
698	12.194
698.5	17.073
699	22.371
699.5	27.889
700	33.576
700.5	38.969
701	43.764
701.5	47.816
702	50.826
702.5	52.947
703	54.325
703.5	55.073
704	55.248
704.5	54.871
705	53.966
705.5	52.623
706	50.955
706.5	49.013
707	46.851
707.5	44.539
708	42.138
708.5	39.727
709	37.367
709.5	35.06
710	32.722
710.5	30.353
711	27.952
711.5	25.57
712	23.357
712.5	21.431
713	19.822
713.5	18.46
714	17.256
714.5	16.273
715	15.746
715.5	16.099
716	17.441
716.5	20.013
717	23.637
717.5	27.919
718	32.345
718.5	36.448
719	39.906
719.5	42.529
720	44.246
720.5	45.121
721	45.117
721.5	44.36
722	42.899
722.5	40.775
723	38.023
723.5	34.701
724	30.959
724.5	27.082
725	23.394
725.5	20.181
726	17.512
726.5	15.504
727	13.778
727.5	11.979
728	9.802
728.5	7.3322
729	4.665
729.5	2.0551
730	0
730.5	0
731	0
731.5	0
732	0
732.5	0
733	0
733.5	0
734	0
734.5	0
735	1.7352
735.5	3.8011
736	5.6748
736.5	7.4585
737	9.0109
737.5	10.413
738	11.658
738.5	12.651
739	13.158
739.5	13.165
740	12.728
740.5	11.942
741	10.83
741.5	9.4961
742	7.9475
742.5	6.3691
743	4.7575
743.5	3.3594
744	2.1174
744.5	1.022
745	0.14684
745.5	0
746	0
746.5	0
747	0.2595
747.5	0.84622
748	1.1571
748.5	1.0107
749	0.50299
749.5	0
750	0
750.5	0
751	0
751.5	0
752	0
752.5	0
753	0
753.5	1.1793
754	4.3749
754.5	8.1894
755	12.082
755.5	15.319
756	17.648
756.5	18.8
757	18.953
757.5	18.407
758	17.478
758.5	16.37
759	15.122
759.5	13.776
760	12.37
760.5	10.969
761	9.7128
761.5	8.7248
762	8.1167
762.5	7.9728
763	8.1333
763.5	8.4515
764	8.4997
764.5	8.0168
765	6.7217
765.5	4.6645
766	2.2505
766.5	0.11234
767	0
767.5	0
768	0
768.5	0
769	0
769.5	0
770	0
770.5	0
771	0
771.5	0.032478
772	0.63443
772.5	1.0779
773	1.1818
773.5	0.90073
774	0.37911
774.5	0
775	0
775.5	0
776	0
776.5	0
777	0
777.5	0.63474
778	1.3341
778.5	1.7605
779	1.8382
779.5	1.6034
780	1.1317
780.5	0.58819
781	0.076286
781.5	0
782	0
782.5	0
783	0
783.5	0
784	0
784.5	0
785	0
785.5	0.8217
786	2.6494
786.5	5.041
787	8.1132
787.5	11.768
788	15.888
788.5	20.259
789	24.626
789.5	28.711
790	32.436
790.5	35.671
791	38.392
791.5	40.614
792	42.285
792.5	43.313
793	43.534
793.5	42.786
794	41.036
794.5	38.429
795	35.283
795.5	32.032
796	29.118
796.5	26.788
797	25.114
797.5	23.886
798	22.955
798.5	22.004
799	20.842
799.5	19.347
800	17.631
800.5	15.625
801	13.538
801.5	11.48
802	9.5147
802.5	7.6497
803	5.8596
803.5	4.016
804	2.051
804.5	0.42919
805	0.015828
805.5	0
806	0
806.5	0
807	0
807.5	0
808	0
808.5	0
809	0
809.5	0.82038
810	5.1022
810.5	10.101
811	15.857
811.5	22.321
812	29.304
812.5	36.46
813	43.395
813.5	49.634
814	54.851
814.5	58.896
815	61.956
815.5	64.45
816	66.625
816.5	68.734
817	70.762
817.5	72.5
818	73.737
818.5	74.375
819	74.477
819.5	74.114
820	73.412
820.5	72.407
821	70.995
821.5	69.012
822	66.275
822.5	62.668
823	58.194
823.5	52.962
824	47.208
824.5	41.231
825	35.329
825.5	29.724
826	24.482
826.5	19.768
827	15.616
827.5	12.142
828	9.5413
828.5	7.9872
829	7.649
829.5	8.4652
830	10.218
830.5	12.537
831	14.991
831.5	17.189
832	18.825
832.5	19.678
833	19.775
833.5	19.083
834	17.701
834.5	15.752
835	13.381
835.5	10.699
836	7.9103
836.5	5.2201
837	2.8234
837.5	0.86915
838	0
838.5	0
839	0
839.5	0
840	0
840.5	0
841	0.044202
841.5	0.12559
842	0.095824
842.5	0
843	0
843.5	0
844	0
844.5	0
845	0
845.5	0.03353
846	1.1263
846.5	2.3085
847	3.5645
847.5	4.872
848	6.2351
848.5	7.7148
849	9.2343
849.5	10.828
850	12.492
850.5	14.219
851	16.005
851.5	17.836
852	19.711
852.5	21.626
853	23.559
853.5	25.485
854	27.348
854.5	29.056
855	30.512
855.5	31.622
856	32.33
856.5	32.647
857	32.692
857.5	32.66
858	32.77
858.5	33.087
859	33.655
859.5	34.335
860	34.934
860.5	35.296
861	35.387
861.5	35.292
862	35.142
862.5	34.98
863	34.713
863.5	34.146
864	33.036
864.5	31.258
865	28.864
865.5	25.907
866	22.606
866.5	19.184
867	15.907
867.5	13.024
868	10.717
868.5	8.9826
869	7.7596
869.5	6.7619
870	5.8413
870.5	4.9155
871	4.1777
871.5	3.9308
872	4.4697
872.5	5.6247
873	7.3344
873.5	9.3216
874	11.397
874.5	13.579
875	15.882
875.5	18.253
876	20.696
876.5	23.043
877	25.124
877.5	26.749
878	27.731
878.5	27.878
879	27.015
879.5	25.039
880	22.068
880.5	18.5
881	14.588
881.5	10.542
882	6.6076
882.5	2.7324
883	0
883.5	0
884	0
884.5	0
885	0
885.5	0
886	0
886.5	0
887	0
887.5	0
888	0
888.5	0
889	0.81174
889.5	1.8281
890	2.8246
890.5	3.5552
891	4.0302
891.5	4.0151
892	3.4898
892.5	2.6005
893	1.6858
893.5	1.1083
894	1.0401
894.5	1.5169
895	2.268
895.5	3.0403
896	3.696
896.5	4.1766
897	4.5725
897.5	4.8783
898	5.0717
898.5	5.1304
899	4.9515
899.5	4.521
900	3.7538
900.5	2.6731
901	1.4228
901.5	0.10125
902	0
902.5	0
903	0
903.5	0
904	0
904.5	0.16319
905	1.4147
905.5	2.651
906	3.842
906.5	5.0418
907	6.3214
907.5	7.6472
908	8.9498
908.5	10.149
909	11.227
909.5	12.271
910	13.394
910.5	14.586
911	15.811
911.5	16.879
912	17.69
912.5	18.27
913	18.792
913.5	19.322
914	19.965
914.5	20.627
915	21.172
915.5	21.5
916	21.611
916.5	21.532
917	21.241
917.5	20.679
918	19.749
918.5	18.436
919	16.844
919.5	15.157
920	13.553
920.5	12.112
921	10.956
921.5	10.052
922	9.5528
922.5	9.5949
923	10.256
923.5	11.41
924	12.911
924.5	14.428
925	15.729
925.5	16.645
926	17.138
926.5	17.204
927	16.896
927.5	16.329
928	15.682
928.5	15.182
929	15.101
929.5	15.602
930	16.665
930.5	18.106
931	19.657
931.5	21.017
932	22.049
932.5	22.648
933	22.794
933.5	22.466
934	21.637
934.5	20.273
935	18.386
935.5	16.023
936	13.361
936.5	10.631
937	8.0675
937.5	5.9094
938	4.2664
938.5	3.1723
939	2.6734
939.5	2.7398
940	3.3011
940.5	4.31
941	5.5937
941.5	7.1294
942	8.8983
942.5	10.938
943	13.257
943.5	15.782
944	18.349
944.5	20.728
945	22.693
945.5	24.106
946	24.88
946.5	24.957
947	24.378
947.5	23.144
948	21.315
948.5	19.109
949	16.835
949.5	14.816
950	13.342
950.5	12.508
951	12.358
951.5	12.943
952	14.151
952.5	15.86
953	17.943
953.5	20.277
954	22.736
954.5	25.264
955	27.785
955.5	30.188
956	32.318
956.5	34.048
957	35.336
957.5	36.141
958	36.574
958.5	36.715
959	36.613
959.5	36.269
960	35.66
960.5	34.707
961	33.425
961.5	31.702
962	29.455
962.5	26.659
963	23.454
963.5	20.047
964	16.668
964.5	13.542
965	10.763
965.5	8.3951
966	6.5394
966.5	5.2878
967	4.6702
967.5	4.5577
968	4.6401
968.5	4.4813
969	4.1015
969.5	3.343
970	2.4431
970.5	1.5598
971	0.89138
971.5	0.39705
972	0.514
972.5	0.87132
973	1.0486
973.5	0.99217
974	0.62667
974.5	0.12104
975	0
975.5	0
976	0
976.5	0
977	0
977.5	0
978	0
978.5	0
979	0
979.5	0
980	0
980.5	0
981	0
981.5	1.1861
982	4.7996
982.5	8.632
983	11.828
983.5	14.235
984	15.857
984.5	16.833
985	17.331
985.5	17.64
986	17.98
986.5	18.444
987	18.961
987.5	19.385
988	19.6
988.5	19.584
989	19.42
989.5	19.208
990	19.001
990.5	18.846
991	18.694
991.5	18.422
992	18.018
992.5	17.465
993	16.636
993.5	15.673
994	14.532
994.5	13.393
995	12.528
995.5	12.204
996	12.608
996.5	13.662
997	15.288
997.5	17.381
998	19.789
998.5	22.333
999	24.793
999.5	26.903
1000	28.475
1000.5	29.46
1001	29.933
1001.5	29.966
1002	29.559
1002.5	28.476
1003	26.423
1003.5	23.323
1004	19.131
1004.5	14.319
1005	9.4941
1005.5	5.2758
1006	1.832
1006.5	0
1007	0
1007.5	0
1008	0
1008.5	0
1009	0
1009.5	0
1010	0
1010.5	0
1011	0
1011.5	0.45601
1012	2.3324
1012.5	4.7728
1013	7.5047
1013.5	10.583
1014	13.999
1014.5	17.762
1015	21.844
1015.5	26.14
1016	30.283
1016.5	34.05
1017	36.92
1017.5	38.493
1018	38.618
1018.5	37.165
1019	34.306
1019.5	30.268
1020	25.359
1020.5	19.815
1021	14.045
1021.5	8.5195
1022	3.6873
1022.5	0
1023	0
1023.5	0
1024	0
1024.5	0
1025	0
1025.5	0
1026	0
1026.5	0
1027	0.80447
1027.5	2.3734
1028	3.6805
1028.5	4.7411
1029	5.6628
1029.5	6.395
1030	6.7214
1030.5	6.5925
1031	5.9467
1031.5	4.8952
1032	3.5759
1032.5	2.2477
1033	1.1238
1033.5	0.22433
1034	0
1034.5	0
1035	0
1035.5	0.39551
1036	0.59401
1036.5	0.46346
1037	0.053423
1037.5	0
1038	0
1038.5	0
1039	0.021274
1039.5	0.8005
1040	1.631
1040.5	2.486
1041	3.3439
1041.5	4.2707
1042	5.4099
1042.5	6.7994
1043	8.4213
1043.5	10.099
1044	11.703
1044.5	12.9
1045	13.39
1045.5	13.103
1046	11.986
1046.5	10.34
1047	8.4802
1047.5	6.7088
1048	5.2389
1048.5	4.0773
1049	3.1425
1049.5	2.3513
1050	1.5511
1050.5	0.6665
1051	0.016043
1051.5	0
1052	0
1052.5	0
1053	0
1053.5	0
1054	0.00011737
1054.5	0.053481
1055	0.0046814
1055.5	0
1056	0
1056.5	0
1057	0
1057.5	0.10924
1058	2.6484
1058.5	5.8766
1059	9.7231
1059.5	14.116
1060	18.934
1060.5	24.121
1061	29.633
1061.5	35.397
1062	41.334
1062.5	47.208
1063	52.679
1063.5	57.359
1064	60.912
1064.5	63.112
1065	63.872
1065.5	63.152
1066	60.961
1066.5	57.546
1067	53.087
1067.5	47.915
1068	42.425
1068.5	36.882
1069	31.478
1069.5	26.347
1070	21.553
1070.5	17.295
1071	13.821
1071.5	11.386
1072	9.9713
1072.5	9.5691
1073	10.001
1073.5	11.004
1074	12.227
1074.5	13.288
1075	13.733
1075.5	13.482
1076	12.364
1076.5	10.625
1077	8.4667
1077.5	6.2397
1078	4.102
1078.5	2.0564
1079	0.16727
1079.5	0
1080	0
1080.5	0
1081	0
1081.5	0
1082	0.66642
1082.5	2.5694
1083	4.5836
1083.5	6.4725
1084	8.1128
1084.5	9.2256
1085	9.6005
1085.5	9.3182
1086	8.2403
1086.5	6.6335
1087	4.8474
1087.5	2.9928
1088	1.0166
1088.5	0
1089	0
1089.5	0
1090	0
1090.5	0
1091	0
1091.5	0
1092	0
1092.5	0
1093	0
1093.5	0
1094	0
1094.5	0
1095	0
1095.5	0
1096	0
1096.5	1.1627
1097	4.6093
1097.5	8.4973
1098	12.618
1098.5	16.712
1099	20.73
1099.5	24.741
1100	28.851
1100.5	33.056
1101	37.13
1101.5	40.746
1102	43.617
1102.5	45.553
1103	46.519
1103.5	46.656
1104	46.096
1104.5	44.906
1105	43.117
1105.5	40.743
1106	37.747
1106.5	34.149
1107	30.102
1107.5	25.763
1108	21.297
1108.5	16.828
1109	12.476
1109.5	8.4056
1110	4.8183
1110.5	1.9192
1111	0
1111.5	0
1112	0
1112.5	0
1113	0
1113.5	1.8204
1114	4.71
1114.5	8.4254
1115	12.78
1115.5	17.57
1116	22.587
1116.5	27.78
1117	33.138
1117.5	38.666
1118	44.325
1118.5	50.035
1119	55.527
1119.5	60.679
1120	65.329
1120.5	69.157
1121	71.964
1121.5	73.694
1122	74.479
1122.5	74.629
1123	74.559
1123.5	74.53
1124	74.689
1124.5	75.032
1125	75.386
1125.5	75.559
1126	75.378
1126.5	74.754
1127	73.725
1127.5	72.425
1128	71.001
1128.5	69.49
1129	67.705
1129.5	65.483
1130	62.493
1130.5	58.482
1131	53.381
1131.5	47.491
1132	41.074
1132.5	34.535
1133	28.285
1133.5	22.672
1134	17.955
1134.5	14.183
1135	11.306
1135.5	9.2049
1136	7.7965
1136.5	7.0929
1137	7.1192
1137.5	7.811
1138	8.9113
1138.5	10.155
1139	11.123
1139.5	11.537
1140	11.256
1140.5	10.254
1141	8.583
1141.5	6.5469
1142	4.4407
1142.5	2.9202
1143	2.2178
1143.5	2.6499
1144	4.027
1144.5	5.8315
1145	7.819
1145.5	9.6947
1146	11.534
1146.5	13.535
1147	15.546
1147.5	17.416
1148	18.778
1148.5	19.578
1149	19.763
1149.5	19.718
1150	19.654
1150.5	19.81
1151	20.188
1151.5	20.699
1152	21.271
1152.5	21.866
1153	22.233
1153.5	22.364
1154	21.871
1154.5	20.599
1155	18.741
1155.5	16.494
1156	14.328
1156.5	12.454
1157	10.709
1157.5	8.9379
1158	7.0077
1158.5	4.9921
1159	3.1078
1159.5	1.7006
1160	0.81313
1160.5	0.43243
1161	0.30602
1161.5	0.30899
1162	0.47932
1162.5	0.94141
1163	1.754
1163.5	2.8709
1164	4.1955
1164.5	5.7536
1165	7.7076
1165.5	10.301
1166	13.732
1166.5	17.978
1167	22.912
1167.5	28.278
1168	34.008
1168.5	39.923
1169	45.997
1169.5	52.137
1170	58.239
1170.5	64.242
1171	70.038
1171.5	75.44
1172	80.107
1172.5	83.57
1173	85.413
1173.5	85.55
1174	84.196
1174.5	81.806
1175	78.986
1175.5	76.169
1176	73.569
1176.5	71.137
1177	68.802
1177.5	66.347
1178	63.63
1178.5	60.588
1179	57.315
1179.5	54.043
1180	51.011
1180.5	48.313
1181	45.761
1181.5	43
1182	39.682
1182.5	35.619
1183	30.833
1183.5	25.476
1184	19.764
1184.5	13.902
1185	8.2324
1185.5	3.0625
1186	0
1186.5	0
1187	0
1187.5	0
1188	0
1188.5	0
1189	0
1189.5	0
1190	0
1190.5	0
1191	2.8623
1191.5	8.3421
1192	14.034
1192.5	19.677
1193	25.003
1193.5	29.68
1194	33.475
1194.5	36.271
1195	38.307
1195.5	39.927
1196	41.424
1196.5	42.757
1197	43.738
1197.5	43.954
1198	43.266
1198.5	41.53
1199	38.974
1199.5	35.832
1200	32.297
1200.5	28.443
1201	24.399
1201.5	20.366
1202	16.548
1202.5	12.962
1203	9.4383
1203.5	5.7672
1204	1.9363
1204.5	0
1205	0
1205.5	0
1206	0
1206.5	0
1207	0
1207.5	0
1208	0
1208.5	0
1209	0
1209.5	0
1210	0
1210.5	0
1211	1.8063
1211.5	4.2476
1212	6.8454
1212.5	9.2068
1213	11.142
1213.5	12.535
1214	13.33
1214.5	13.685
1215	13.816
1215.5	13.881
1216	13.714
1216.5	13.132
1217	11.935
1217.5	10.062
1218	7.7648
1218.5	5.3576
1219	3.0844
1219.5	1.0872
1220	0
1220.5	0
1221	0
1221.5	0
1222	0
1222.5	0
1223	0
1223.5	0.62932
1224	2.1498
1224.5	3.5712
1225	4.8143
1225.5	5.7525
1226	6.2477
1226.5	6.1099
1227	5.4049
1227.5	4.2926
1228	3.0447
1228.5	1.9065
1229	0.9612
1229.5	0.15658
1230	0
1230.5	0
1231	0
1231.5	0
1232	0
1232.5	0
1233	0.20748
1233.5	0.55203
1234	0.77007
1234.5	0.75612
1235	0.5225
1235.5	0.13773
1236	0
1236.5	0
1237	0
1237.5	0.34695
1238	1.4724
1238.5	2.9259
1239	4.588
1239.5	6.4894
1240	8.7731
1240.5	11.295
1241	14.175
1241.5	17.325
1242	20.377
1242.5	23.041
1243	25.215
1243.5	26.728
1244	27.589
1244.5	27.95
1245	27.854
1245.5	27.57
1246	27.226
1246.5	26.827
1247	26.253
1247.5	25.317
1248	23.928
1248.5	22.178
1249	20.318
1249.5	18.625
1250	17.292
1250.5	16.161
1251	15.314
1251.5	14.517
1252	13.598
1252.5	12.597
1253	11.667
1253.5	10.796
1254	10.099
1254.5	9.569
1255	9.1041
1255.5	8.742
1256	8.3883
1256.5	8.0887
1257	7.8475
1257.5	7.8209
1258	8.0481
1258.5	8.4011
1259	8.5991
1259.5	8.2834
1260	7.5062
1260.5	6.2314
1261	4.7972
1261.5	3.6692
1262	2.8497
1262.5	2.4903
1263	2.3108
1263.5	2.0239
1264	1.5122
1264.5	0.87709
1265	0.38208
1265.5	0.21673
1266	0.43231
1266.5	0.83274
1267	1.2418
1267.5	1.6855
1268	1.7633
1268.5	1.489
1269	0.96687
1269.5	0.33248
1270	0
1270.5	0
1271	0
1271.5	0
1272	0
1272.5	0
1273	0
1273.5	0.52655
1274	1.9105
1274.5	3.4125
1275	4.9183
1275.5	6.1332
1276	6.9111
1276.5	7.2993
1277	7.382
1277.5	7.4175
1278	7.7249
1278.5	8.3804
1279	9.1672
1279.5	9.6915
1280	9.6465
1280.5	8.7958
1281	7.2867
1281.5	5.3755
1282	3.5035
1282.5	1.9437
1283	0.69619
1283.5	0
1284	0
1284.5	0
1285	0
1285.5	0
1286	0
1286.5	0
1287	0.93488
1287.5	2.9649
1288	5.5727
1288.5	8.3264
1289	10.59
1289.5	12.149
1290	12.805
1290.5	12.875
1291	12.815
1291.5	13.02
1292	13.716
1292.5	15.006
1293	16.984
1293.5	19.704
1294	23.053
1294.5	26.797
1295	30.416
1295.5	33.732
1296	36.739
1296.5	39.95
1297	43.48
1297.5	47.394
1298	51.517
1298.5	55.056
1299	57.493
1299.5	58.86
1300	59.287
1300.5	59.304
1301	59.153
1301.5	58.815
1302	58.175
1302.5	57.177
1303	55.874
1303.5	54.293
1304	52.377
1304.5	49.989
1305	47.149
1305.5	44.155
1306	41.294
1306.5	38.879
1307	36.719
1307.5	34.715
1308	32.269
1308.5	29.108
1309	25.406
1309.5	21.571
1310	18.062
1310.5	15.128
1311	12.683
1311.5	10.49
1312	8.3349
1312.5	6.1055
1313	3.8835
1313.5	1.8885
1314	0.35062
1314.5	0
1315	0
1315.5	0
1316	0.60865
1316.5	1.2489
1317	1.3945
1317.5	0.99083
1318	0.23405
1318.5	0
1319	0
1319.5	0
1320	0
1320.5	0.037425
1321	0.45153
1321.5	0.41049
1322	0
1322.5	0
1323	0
1323.5	0
1324	0
1324.5	0.068295
1325	0.3563
1325.5	0.21643
1326	0
1326.5	0
1327	0.42665
1327.5	2.0228
1328	3.8896
1328.5	5.8599
1329	7.7474
1329.5	9.4598
1330	10.827
1330.5	11.835
1331	12.576
1331.5	13.319
1332	14.381
1332.5	15.844
1333	17.279
1333.5	18.505
1334	18.959
1334.5	18.559
1335	17.564
1335.5	16.237
1336	15.055
1336.5	14.193
1337	13.629
1337.5	13.177
1338	12.608
1338.5	11.97
1339	11.346
1339.5	10.979
1340	11.176
1340.5	12.07
1341	13.462
1341.5	15.07
1342	16.38
1342.5	17.007
1343	16.755
1343.5	15.59
1344	13.682
1344.5	11.292
1345	8.6038
1345.5	5.9025
1346	3.3455
1346.5	0.94372
1347	0
1347.5	0
1348	0
1348.5	0
1349	0
1349.5	0
1350	0
1350.5	0
1351	0
1351.5	0.0047653
1352	0.45643
1352.5	0.77213
1353	0.86268
1353.5	0.67729
1354	0.36665
1354.5	0.081929
1355	0
1355.5	0
1356	0
1356.5	0.080354
1357	0.16889
1357.5	0.1592
1358	0.056666
1358.5	0
1359	0
1359.5	0
1360	0
1360.5	0.47046
1361	1.5674
1361.5	2.8413
1362	4.0933
1362.5	5.3901
1363	6.7262
1363.5	8.2639
1364	10.048
1364.5	11.963
1365	13.815
1365.5	15.403
1366	16.526
1366.5	17.112
1367	17.097
1367.5	16.572
1368	15.749
1368.5	14.906
1369	14.144
1369.5	13.544
1370	13.037
1370.5	12.557
1371	12.21
1371.5	12.214
1372	12.71
1372.5	13.607
1373	14.486
1373.5	15.137
1374	15.305
1374.5	15.009
1375	14.247
1375.5	13.097
1376	11.415
1376.5	9.2506
1377	6.5849
1377.5	3.7205
1378	1.0493
1378.5	0
1379	0
1379.5	0
1380	0
1380.5	0
1381	0
1381.5	0
1382	0
1382.5	0.020894
1383	0.16227
1383.5	0.33398
1384	0.41591
1384.5	0.50419
1385	0.54225
1385.5	0.53583
1386	0.40972
1386.5	0.18311
1387	0
1387.5	0
1388	0
1388.5	0
1389	0
1389.5	0
1390	0
1390.5	0
1391	0
1391.5	0.34794
1392	4.4498
1392.5	9.3605
1393	14.494
1393.5	19.573
1394	24.264
1394.5	28.567
1395	32.463
1395.5	35.877
1396	38.709
1396.5	40.913
1397	42.544
1397.5	43.659
1398	44.18
1398.5	43.899
1399	42.55
1399.5	40.227
1400	37.16
1400.5	33.828
1401	30.67
1401.5	27.82
1402	25.129
1402.5	22.706
1403	20.523
1403.5	18.795
1404	17.626
1404.5	17.231
1405	17.609
1405.5	18.855
1406	20.949
1406.5	23.748
1407	26.922
1407.5	29.986
1408	32.495
1408.5	34.126
1409	34.842
1409.5	34.821
1410	34.067
1410.5	32.681
1411	30.788
1411.5	28.507
1412	26.013
1412.5	23.548
1413	21.263
1413.5	19.233
1414	17.439
1414.5	15.845
1415	14.279
1415.5	12.614
1416	10.73
1416.5	8.3275
1417	5.3643
1417.5	2.0605
1418	0
1418.5	0
1419	0
1419.5	0
1420	0
1420.5	0
1421	0
1421.5	0
1422	0
1422.5	0
1423	0
1423.5	0
1424	0
1424.5	2.76
1425	7.8031
1425.5	12.967
1426	17.99
1426.5	22.569
1427	26.842
1427.5	31.04
1428	35.403
1428.5	40.091
1429	44.929
1429.5	49.69
1430	54.088
1430.5	57.872
1431	61.136
1431.5	63.839
1432	66.138
1432.5	68.163
1433	70.063
1433.5	71.845
1434	73.365
1434.5	74.348
1435	74.603
1435.5	74.036
1436	72.678
1436.5	70.679
1437	68.316
1437.5	65.881
1438	63.663
1438.5	61.749
1439	59.942
1439.5	58.02
1440	55.658
1440.5	52.692
1441	49.254
1441.5	45.311
1442	41.025
1442.5	36.56
1443	31.896
1443.5	27.107
1444	22.269
1444.5	17.583
1445	13.11
1445.5	8.9805
1446	5.2183
1446.5	2.0047
1447	0
1447.5	0
1448	0
1448.5	0
1449	0.0048146
1449.5	0.10431
1450	0.28943
1450.5	0.44684
1451	0.5315
1451.5	0.44199
1452	0.1819
1452.5	0
1453	0
1453.5	0
1454	0
1454.5	0
1455	0
1455.5	0
1456	0
1456.5	0
1457	0
1457.5	0
1458	0.19109
1458.5	0.23077
1459	0
1459.5	0
1460	0
1460.5	0
1461	0.10838
1461.5	0.25844
1462	0.12717
1462.5	0
1463	0
1463.5	0.78744
1464	1.8468
1464.5	2.9492
1465	4.0045
1465.5	5.0284
1466	6.0417
1466.5	7.0212
1467	7.8647
1467.5	8.5617
1468	9.2998
1468.5	10.38
1469	12.034
1469.5	14.263
1470	16.839
1470.5	19.559
1471	22.465
1471.5	25.9
1472	30.274
1472.5	35.693
1473	41.973
1473.5	48.648
1474	55.347
1474.5	61.931
1475	68.501
1475.5	74.799
1476	80.788
1476.5	86.174
1477	90.728
1477.5	94.416
1478	97.25
1478.5	99.161
1479	100
1479.5	99.629
1480	98.113
1480.5	95.769
1481	93.018
1481.5	90.139
1482	87.161
1482.5	83.9
1483	80.176
1483.5	75.892
1484	71.13
1484.5	65.932
1485	60.315
1485.5	54.259
1486	48.054
1486.5	41.825
1487	35.871
1487.5	30.381
1488	25.326
1488.5	20.525
1489	15.806
1489.5	11.262
1490	7.0114
1490.5	3.3071
1491	0.27711
1491.5	0
1492	0
1492.5	0
1493	0
1493.5	0
1494	0
1494.5	0
1495	0
1495.5	0
1496	0
1496.5	0
1497	0
1497.5	0
1498	1.4662
1498.5	3.2917
1499	5.0921
1499.5	6.9476
1500	8.7125
1500.5	10.23
1501	11.332
1501.5	11.853
1502	11.749
1502.5	11.3
1503	10.835
1503.5	10.571
1504	10.502
1504.5	10.4
1505	9.9274
1505.5	9.0764
1506	7.6883
1506.5	5.998
1507	4.4403
1507.5	3.6369
1508	3.6087
1508.5	4.6956
1509	6.6123
1509.5	8.6793
1510	9.9482
1510.5	10.388
1511	9.6422
1511.5	8.0879
1512	6.4411
1512.5	5.1761
1513	4.512
1513.5	4.2578
1514	4.0401
1514.5	3.4824
1515	2.4607
1515.5	1.0246
1516	0
1516.5	0
1517	0
1517.5	0
1518	0
1518.5	0.10466
1519	1.46
1519.5	2.6915
1520	3.3429
1520.5	4.0232
1521	4.8002
1521.5	6.1553
1522	8.1599
1522.5	10.394
1523	12.679
1523.5	15.062
1524	17.294
1524.5	19.562
1525	21.709
1525.5	23.293
1526	24.333
1526.5	24.889
1527	25.28
1527.5	25.741
1528	26.315
1528.5	26.896
1529	27.432
1529.5	27.962
1530	28.535
1530.5	29.063
1531	29.387
1531.5	29.297
1532	28.986
1532.5	28.574
1533	28.543
1533.5	29.035
1534	29.679
1534.5	30.501
1535	31.161
1535.5	31.577
1536	31.934
1536.5	32.174
1537	32.31
1537.5	32.226
1538	31.753
1538.5	30.733
1539	29.03
1539.5	26.583
1540	23.467
1540.5	19.985
1541	16.334
1541.5	12.724
1542	9.1508
1542.5	5.6776
1543	2.2486
1543.5	0
1544	0
1544.5	0
1545	0
1545.5	0
1546	0
1546.5	0
1547	0
1547.5	0
1548	0
1548.5	0
1549	0.84475
1549.5	5.3139
1550	9.932
1550.5	14.558
1551	19.177
1551.5	23.829
1552	28.39
1552.5	32.955
1553	37.192
1553.5	40.888
1554	43.766
1554.5	45.537
1555	46.039
1555.5	45.241
1556	43.331
1556.5	40.632
1557	37.466
1557.5	34.033
1558	30.393
1558.5	26.392
1559	21.957
1559.5	17.108
1560	12.074
1560.5	7.3347
1561	3.4318
1561.5	0.78842
1562	0
1562.5	0
1563	0.81001
1563.5	2.4845
1564	4.499
1564.5	6.5409
1565	8.5512
1565.5	10.566
1566	12.707
1566.5	15.123
1567	17.766
1567.5	20.499
1568	23.139
1568.5	25.553
1569	27.809
1569.5	30.206
1570	32.802
1570.5	35.754
1571	38.889
1571.5	42.113
1572	45.402
1572.5	48.889
1573	52.537
1573.5	56.219
1574	59.68
1574.5	62.49
1575	64.656
1575.5	66.381
1576	67.94
1576.5	69.401
1577	70.448
1577.5	70.741
1578	70.155
1578.5	68.889
1579	67.385
1579.5	65.973
1580	64.534
1580.5	62.984
1581	61.123
1581.5	59.129
1582	57.245
1582.5	55.665
1583	54.134
1583.5	52.371
1584	49.982
1584.5	46.961
1585	43.61
1585.5	40.235
1586	36.994
1586.5	33.864
1587	30.772
1587.5	27.749
1588	24.941
1588.5	22.377
1589	20.007
1589.5	17.7
1590	15.404
1590.5	13.182
1591	11.127
1591.5	9.2502
1592	7.4381
1592.5	5.5456
1593	3.5434
1593.5	1.604
1594	0.0033107
1594.5	0
1595	0
1595.5	0
1596	0
1596.5	0.83291
1597	2.1744
1597.5	3.6461
1598	5.1313
1598.5	6.5131
1599	7.7042
1599.5	8.6263
1600	9.2542
1600.5	9.5243
1601	9.4696
1601.5	9.2227
1602	8.9389
1602.5	8.7547
1603	8.6754
1603.5	8.5565
1604	8.2996
1604.5	7.891
1605	7.4002
1605.5	6.8555
1606	6.2476
1606.5	5.5039
1607	4.5639
1607.5	3.6271
1608	2.9084
1608.5	2.7002
1609	3.037
1609.5	4.1061
1610	5.9234
1610.5	8.4389
1611	11.56
1611.5	15.062
1612	18.626
1612.5	21.898
1613	24.592
1613.5	26.563
1614	27.846
1614.5	28.569
1615	28.814
1615.5	28.566
1616	27.763
1616.5	26.333
1617	24.384
1617.5	22.263
1618	20.258
1618.5	18.586
1619	17.142
1619.5	15.914
1620	14.673
1620.5	13.29
1621	11.723
1621.5	9.9973
1622	8.1972
1622.5	6.4105
1623	4.7137
1623.5	3.0839
1624	1.4387
1624.5	0
1625	0
1625.5	0
1626	0
1626.5	0
1627	0
1627.5	0
1628	0
1628.5	0
1629	1.411
1629.5	2.9124
1630	4.3662
1630.5	5.7686
1631	7.1188
1631.5	8.446
1632	9.7989
1632.5	11.229
1633	12.722
1633.5	14.161
1634	15.368
1634.5	16.209
1635	16.651
1635.5	16.666
1636	16.295
1636.5	15.543
1637	14.411
1637.5	12.951
1638	11.298
1638.5	9.5838
1639	7.9122
1639.5	6.266
1640	4.5737
1640.5	2.8364
1641	1.1508
1641.5	0
1642	0
1642.5	0
1643	0.25462
1643.5	1.7622
1644	3.3683
1644.5	4.6951
1645	5.5595
1645.5	6.0073
1646	6.2596
1646.5	6.4868
1647	6.7111
1647.5	6.8405
1648	6.8213
1648.5	6.7218
1649	6.6528
1649.5	6.6445
1650	6.5773
1650.5	6.267
1651	5.6386
1651.5	4.8707
1652	4.2846
1652.5	4.0882
1653	4.2401
1653.5	4.4471
1654	4.418
1654.5	4.0695
1655	3.4938
1655.5	2.8188
1656	2.0791
1656.5	1.2232
1657	0.20407
1657.5	0
1658	0
1658.5	0
1659	0
1659.5	0.0049142
1660	0.36488
1660.5	0.46162
1661	0.17856
1661.5	0
1662	0
1662.5	0
1663	0
1663.5	0.38875
1664	0.93846
1664.5	1.1878
1665	0.92436
1665.5	0.32961
1666	0
1666.5	0
1667	0
1667.5	0
1668	0
1668.5	0
1669	0
1669.5	0.25502
1670	0.95088
1670.5	1.4688
1671	1.5042
1671.5	1.1722
1672	0.52111
1672.5	0
1673	0
1673.5	0
1674	0
1674.5	0
1675	0
1675.5	0
1676	0
1676.5	0
1677	0
1677.5	0
1678	0
1678.5	0
1679	0.43694
1679.5	0.8185
1680	1.1007
1680.5	1.0883
1681	0.91082
1681.5	0.67641
1682	0.33152
1682.5	0.067279
1683	0
1683.5	0
1684	0.034407
1684.5	0
1685	0
1685.5	0
1686	0
1686.5	0.023841
1687	0.87903
1687.5	1.6278
1688	2.0184
1688.5	2.109
1689	2.0024
1689.5	1.8858
1690	1.8565
1690.5	1.7608
1691	1.6203
1691.5	1.3034
1692	0.75752
1692.5	0.17909
1693	0
1693.5	0
1694	0
1694.5	0
1695	0
1695.5	0
1696	0.3301
1696.5	1.3029
1697	1.9511
1697.5	2.3941
1698	2.5951
1698.5	2.646
1699	2.6382
1699.5	2.73
1700	2.8268
1700.5	2.9534
1701	3.0267
1701.5	3.1004
1702	3.2132
1702.5	3.3846
1703	3.5942
1703.5	3.9071
1704	4.3786
1704.5	5.0365
1705	5.8601
1705.5	6.6745
1706	7.2238
1706.5	7.4222
1707	7.2103
1707.5	6.7589
1708	6.1283
1708.5	5.3804
1709	4.635
1709.5	3.8285
1710	3.0131
1710.5	2.258
1711	1.5728
1711.5	0.90482
1712	0.2713
1712.5	0
1713	0
1713.5	0
1714	0.10973
1714.5	1.0551
1715	2.1325
1715.5	3.1257
1716	3.9549
1716.5	4.6499
1717	5.2289
1717.5	5.6342
1718	5.7401
1718.5	5.4905
1719	5.0835
1719.5	4.7095
1720	4.5878
1720.5	4.7631
1721	5.0741
1721.5	5.3674
1722	5.6957
1722.5	6.2827
1723	7.3902
1723.5	8.8862
1724	10.53
1724.5	11.833
1725	12.62
1725.5	12.862
1726	12.724
1726.5	12.386
1727	11.958
1727.5	11.475
1728	11.05
1728.5	10.777
1729	10.71
1729.5	10.834
1730	11.017
1730.5	11.206
1731	11.326
1731.5	11.417
1732	11.536
1732.5	11.708
1733	11.811
1733.5	11.629
1734	11.024
1734.5	10.06
1735	9.0143
1735.5	8.0697
1736	7.3775
1736.5	6.9305
1737	6.6377
1737.5	6.4984
1738	6.5051
1738.5	6.6551
1739	6.8943
1739.5	7.1413
1740	7.314
1740.5	7.3471
1741	7.2065
1741.5	6.8636
1742	6.29
1742.5	5.5208
1743	4.6425
1743.5	3.7601
1744	3.101
1744.5	2.7569
1745	2.6448
1745.5	2.5522
1746	2.271
1746.5	1.7668
1747	1.1484
1747.5	0.55224
1748	0.16619
1748.5	0.20735
1749	0.25652
1749.5	0.23357
1750	0.10563
1750.5	0
1751	0
1751.5	0
1752	0
1752.5	0
1753	0
1753.5	0
1754	0
1754.5	0.75977
1755	2.4685
1755.5	4.0227
1756	5.2733
1756.5	6.2936
1757	7.2135
1757.5	8.0016
1758	8.5795
1758.5	8.7624
1759	8.505
1759.5	7.9441
1760	7.1684
1760.5	6.2142
1761	5.1575
1761.5	3.9398
1762	2.6939
1762.5	1.5427
1763	0.79429
1763.5	0.43313
1764	0.18907
1764.5	0.13257
1765	0.024371
1765.5	0
1766	0
1766.5	0
1767	0.59891
1767.5	1.8544
1768	3.0046
1768.5	3.7733
1769	4.2491
1769.5	4.3238
1770	3.9924
1770.5	3.3872
1771	2.6618
1771.5	1.9599
1772	1.5514
1772.5	0.64667
1773	0
1773.5	0
1774	0
1774.5	0
1775	0
1775.5	0
1776	0
1776.5	0
1777	1.1514
