414	25.198
414.5	25.072
415	24.965
415.5	24.876
416	24.803
416.5	24.745
417	24.7
417.5	24.666
418	24.641
418.5	24.625
419	24.614
419.5	24.608
420	24.605
420.5	24.604
421	24.601
421.5	24.597
422	24.589
422.5	24.576
423	24.555
423.5	24.526
424	24.487
424.5	24.409
425	24.325
425.5	24.221
426	24.098
426.5	23.963
427	23.824
427.5	23.68
428	23.52
428.5	23.327
429	23.087
429.5	22.799
430	22.474
430.5	22.129
431	21.78
431.5	21.431
432	21.077
432.5	20.711
433	20.326
433.5	19.93
434	19.525
434.5	19.125
435	18.742
435.5	18.379
436	18.03
436.5	17.688
437	17.345
437.5	16.994
438	16.63
438.5	16.252
439	15.856
439.5	15.44
440	15.003
440.5	14.549
441	14.087
441.5	13.627
442	13.178
442.5	12.739
443	12.305
443.5	11.864
444	11.418
444.5	10.965
445	10.518
445.5	10.089
446	9.6835
446.5	9.2976
447	8.9173
447.5	8.5266
448	8.1191
448.5	7.701
449	7.2907
449.5	6.9137
450	6.5903
450.5	6.3264
451	6.1223
451.5	5.9692
452	5.853
452.5	5.7632
453	5.6915
453.5	5.6363
454	5.5991
454.5	5.5851
455	5.6025
455.5	5.6607
456	5.7696
456.5	5.9386
457	6.175
457.5	6.4853
458	6.8703
458.5	7.3274
459	7.8499
459.5	8.4319
460	9.0691
460.5	9.7626
461	10.514
461.5	11.324
462	12.183
462.5	13.075
463	13.974
463.5	14.852
464	15.69
464.5	16.467
465	17.182
465.5	17.831
466	18.418
466.5	18.945
467	19.415
467.5	19.829
468	20.186
468.5	20.479
469	20.702
469.5	20.843
470	20.895
470.5	20.847
471	20.701
471.5	20.457
472	20.112
472.5	19.671
473	19.136
473.5	18.52
474	17.838
474.5	17.114
475	16.375
475.5	15.643
476	14.936
476.5	14.264
477	13.636
477.5	13.05
478	12.502
478.5	11.992
479	11.525
479.5	11.114
480	10.771
480.5	10.51
481	10.335
481.5	10.239
482	10.204
482.5	10.211
483	10.24
483.5	10.284
484	10.346
484.5	10.439
485	10.575
485.5	10.76
486	10.997
486.5	11.278
487	11.592
487.5	11.927
488	12.273
488.5	12.625
489	12.984
489.5	13.35
490	13.722
490.5	14.095
491	14.459
491.5	14.805
492	15.124
492.5	15.42
493	15.699
493.5	15.977
494	16.264
494.5	16.565
495	16.871
495.5	17.167
496	17.43
496.5	17.644
497	17.798
497.5	17.883
498	17.908
498.5	17.883
499	17.821
499.5	17.736
500	17.635
500.5	17.519
501	17.382
501.5	17.216
502	17.011
502.5	16.769
503	16.488
503.5	16.172
504	15.824
504.5	15.447
505	15.044
505.5	14.62
506	14.183
506.5	13.748
507	13.327
507.5	12.932
508	12.575
508.5	12.267
509	12.019
509.5	11.85
510	11.763
510.5	11.776
511	11.899
511.5	12.136
512	12.481
512.5	12.928
513	13.458
513.5	14.055
514	14.692
514.5	15.343
515	15.983
515.5	16.59
516	17.147
516.5	17.639
517	18.058
517.5	18.401
518	18.674
518.5	18.884
519	19.04
519.5	19.145
520	19.189
520.5	19.153
521	19.013
521.5	18.759
522	18.39
522.5	17.921
523	17.369
523.5	16.748
524	16.063
524.5	15.312
525	14.492
525.5	13.608
526	12.676
526.5	11.716
527	10.75
527.5	9.7932
528	8.859
528.5	7.9565
529	7.0965
529.5	6.2885
530	5.5302
530.5	4.8315
531	4.1843
531.5	3.6003
532	3.0419
532.5	2.5093
533	2.0107
533.5	1.5464
534	1.1269
534.5	0.74939
535	0.40628
535.5	0.085046
536	0
536.5	0
537	0
537.5	0
538	0
538.5	0
539	0
539.5	0
540	0
540.5	0
541	0
541.5	0
542	0
542.5	0
543	0
543.5	0
544	0
544.5	0.0033026
545	0.12
545.5	0.27294
546	0.43827
546.5	0.5963
547	0.73809
547.5	0.86027
548	0.95864
548.5	1.0361
549	1.0958
549.5	1.1433
550	1.1845
550.5	1.2255
551	1.2625
551.5	1.3052
552	1.3571
552.5	1.4244
553	1.5057
553.5	1.5863
554	1.6566
554.5	1.6967
555	1.7024
555.5	1.6608
556	1.5733
556.5	1.4653
557	1.3436
557.5	1.2341
558	1.1463
558.5	1.0786
559	1.0199
559.5	0.97272
560	0.92091
560.5	0.85961
561	0.81144
561.5	0.79152
562	0.82557
562.5	0.91819
563	1.0514
563.5	1.1959
564	1.3066
564.5	1.3603
565	1.3341
565.5	1.2334
566	1.0741
566.5	0.87828
567	0.67058
567.5	0.4994
568	0.33868
568.5	0.17877
569	0.024177
569.5	0
570	0
570.5	0
571	0
571.5	0
572	0
572.5	0.025009
573	0.17938
573.5	0.3493
574	0.54321
574.5	0.77714
575	1.0695
575.5	1.4362
576	1.8792
576.5	2.3865
577	2.9315
577.5	3.4942
578	4.0439
578.5	4.5682
579	5.0541
579.5	5.5017
580	5.9211
580.5	6.3154
581	6.6946
581.5	7.0551
582	7.395
582.5	7.6929
583	7.925
583.5	8.0739
584	8.139
584.5	8.1428
585	8.1014
585.5	8.0517
586	8.0149
586.5	7.9955
587	7.9879
587.5	7.9864
588	7.9969
588.5	8.041
589	8.1466
589.5	8.3399
590	8.6287
590.5	8.9983
591	9.4212
591.5	9.8695
592	10.324
592.5	10.782
593	11.255
593.5	11.767
594	12.324
594.5	12.934
595	13.586
595.5	14.256
596	14.911
596.5	15.518
597	16.058
597.5	16.521
598	16.909
598.5	17.239
599	17.514
599.5	17.74
600	17.911
600.5	18.011
601	18.033
601.5	17.968
602	17.817
602.5	17.597
603	17.332
603.5	17.052
604	16.772
604.5	16.51
605	16.263
605.5	16.03
606	15.795
606.5	15.557
607	15.323
607.5	15.114
608	14.95
608.5	14.849
609	14.812
609.5	14.83
610	14.883
610.5	14.955
611	15.034
611.5	15.122
612	15.222
612.5	15.348
613	15.516
613.5	15.731
614	15.99
614.5	16.288
615	16.596
615.5	16.895
616	17.16
616.5	17.388
617	17.588
617.5	17.774
618	17.959
618.5	18.143
619	18.313
619.5	18.451
620	18.547
620.5	18.603
621	18.636
621.5	18.663
622	18.704
622.5	18.771
623	18.868
623.5	18.988
624	19.122
624.5	19.268
625	19.418
625.5	19.576
626	19.743
626.5	19.934
627	20.162
627.5	20.437
628	20.761
628.5	21.127
629	21.522
629.5	21.932
630	22.346
630.5	22.759
631	23.166
631.5	23.566
632	23.953
632.5	24.328
633	24.683
633.5	25.006
634	25.292
634.5	25.533
635	25.729
635.5	25.893
636	26.036
636.5	26.18
637	26.334
637.5	26.501
638	26.671
638.5	26.834
639	26.979
639.5	27.106
640	27.224
640.5	27.351
641	27.491
641.5	27.659
642	27.855
642.5	28.077
643	28.317
643.5	28.565
644	28.812
644.5	29.052
645	29.282
645.5	29.503
646	29.718
646.5	29.922
647	30.104
647.5	30.246
648	30.332
648.5	30.35
649	30.299
649.5	30.184
650	30.013
650.5	29.789
651	29.508
651.5	29.166
652	28.764
652.5	28.315
653	27.828
653.5	27.322
654	26.81
654.5	26.297
655	25.781
655.5	25.26
656	24.732
656.5	24.201
657	23.669
657.5	23.141
658	22.615
658.5	22.095
659	21.581
659.5	21.08
660	20.608
660.5	20.17
661	19.764
661.5	19.393
662	19.038
662.5	18.688
663	18.337
663.5	17.991
664	17.668
664.5	17.383
665	17.149
665.5	16.966
666	16.819
666.5	16.688
667	16.556
667.5	16.413
668	16.26
668.5	16.104
669	15.948
669.5	15.788
670	15.617
670.5	15.424
671	15.214
671.5	14.989
672	14.762
672.5	14.539
673	14.315
673.5	14.075
674	13.797
674.5	13.474
675	13.104
675.5	12.702
676	12.288
676.5	11.878
677	11.48
677.5	11.089
678	10.695
678.5	10.287
679	9.8615
679.5	9.4186
680	8.9674
680.5	8.5128
681	8.064
681.5	7.6269
682	7.2076
682.5	6.8153
683	6.4625
683.5	6.1651
684	5.9432
684.5	5.7896
685	5.7073
685.5	5.6757
686	5.6616
686.5	5.6557
687	5.6317
687.5	5.5829
688	5.5134
688.5	5.4309
689	5.3442
689.5	5.2639
690	5.2028
690.5	5.1775
691	5.2046
691.5	5.292
692	5.4422
692.5	5.6426
693	5.8802
693.5	6.1476
694	6.4473
694.5	6.7941
695	7.2047
695.5	7.6842
696	8.2345
696.5	8.8416
697	9.4888
697.5	10.158
698	10.835
698.5	11.506
699	12.163
699.5	12.796
700	13.401
700.5	13.974
701	14.517
701.5	15.029
702	15.513
702.5	15.971
703	16.403
703.5	16.809
704	17.181
704.5	17.493
705	17.729
705.5	17.865
706	17.883
706.5	17.798
707	17.614
707.5	17.369
708	17.09
708.5	16.791
709	16.474
709.5	16.144
710	15.813
710.5	15.507
711	15.235
711.5	15.021
712	14.869
712.5	14.768
713	14.707
713.5	14.673
714	14.666
714.5	14.688
715	14.738
715.5	14.807
716	14.89
716.5	14.97
717	15.039
717.5	15.091
718	15.125
718.5	15.135
719	15.118
719.5	15.072
720	14.997
720.5	14.898
721	14.783
721.5	14.652
722	14.499
722.5	14.306
723	14.05
723.5	13.723
724	13.314
724.5	12.827
725	12.28
725.5	11.7
726	11.096
726.5	10.484
727	9.8699
727.5	9.2623
728	8.665
728.5	8.0943
729	7.5668
729.5	7.0974
730	6.684
730.5	6.336
731	6.0299
731.5	5.7827
732	5.5671
732.5	5.3921
733	5.2568
733.5	5.1554
734	5.0766
734.5	5.005
735	4.9318
735.5	4.8542
736	4.7724
736.5	4.6889
737	4.5993
737.5	4.5061
738	4.4001
738.5	4.2809
739	4.1574
739.5	4.0396
740	3.938
740.5	3.8518
741	3.767
741.5	3.6586
742	3.5036
742.5	3.2865
743	3.0076
743.5	2.6904
744	2.3523
744.5	2.0216
745	1.7122
745.5	1.425
746	1.1518
746.5	0.8903
747	0.64484
747.5	0.43478
748	0.26791
748.5	0.16643
749	0.12225
749.5	0.11724
750	0.13107
750.5	0.15225
751	0.18368
751.5	0.23136
752	0.29114
752.5	0.37725
753	0.48476
753.5	0.6286
754	0.75204
754.5	0.84848
755	0.93278
755.5	1.0134
756	1.0997
756.5	1.2005
757	1.308
757.5	1.4173
758	1.5171
758.5	1.6113
759	1.6935
759.5	1.7551
760	1.7733
760.5	1.7301
761	1.6254
761.5	1.4664
762	1.2662
762.5	1.0469
763	0.82753
763.5	0.62059
764	0.43193
764.5	0.25609
765	0.095833
765.5	0
766	0
766.5	0
767	0
767.5	0
768	0
768.5	0
769	0.00040422
769.5	0.0004867
770	0
770.5	0
771	0
771.5	0
772	0
772.5	0
773	0
773.5	0
774	0
774.5	0
775	0
775.5	0
776	0
776.5	0
777	0.0062108
777.5	0.15613
778	0.40809
778.5	0.65426
779	0.88766
779.5	1.1072
780	1.308
780.5	1.5053
781	1.7233
781.5	1.989
782	2.3267
782.5	2.7368
783	3.2175
783.5	3.7534
784	4.3269
784.5	4.9207
785	5.5291
785.5	6.1437
786	6.7614
786.5	7.3824
787	8.005
787.5	8.6314
788	9.2612
788.5	9.8922
789	10.522
789.5	11.143
790	11.75
790.5	12.335
791	12.893
791.5	13.412
792	13.887
792.5	14.315
793	14.691
793.5	15.019
794	15.305
794.5	15.548
795	15.75
795.5	15.907
796	16.019
796.5	16.09
797	16.127
797.5	16.132
798	16.107
798.5	16.044
799	15.939
799.5	15.788
800	15.599
800.5	15.397
801	15.212
801.5	15.072
802	14.991
802.5	14.964
803	14.988
803.5	15.045
804	15.126
804.5	15.239
805	15.402
805.5	15.627
806	15.928
806.5	16.312
807	16.771
807.5	17.298
808	17.881
808.5	18.509
809	19.177
809.5	19.884
810	20.636
810.5	21.44
811	22.295
811.5	23.2
812	24.148
812.5	25.122
813	26.103
813.5	27.075
814	28.026
814.5	28.949
815	29.842
815.5	30.695
816	31.503
816.5	32.253
817	32.927
817.5	33.503
818	33.964
818.5	34.292
819	34.485
819.5	34.546
820	34.495
820.5	34.356
821	34.148
821.5	33.881
822	33.563
822.5	33.202
823	32.809
823.5	32.403
824	32.005
824.5	31.634
825	31.301
825.5	31.005
826	30.735
826.5	30.48
827	30.224
827.5	29.955
828	29.675
828.5	29.385
829	29.097
829.5	28.829
830	28.598
830.5	28.412
831	28.27
831.5	28.173
832	28.108
832.5	28.061
833	28.022
833.5	27.99
834	27.958
834.5	27.926
835	27.89
835.5	27.846
836	27.788
836.5	27.712
837	27.616
837.5	27.499
838	27.367
838.5	27.227
839	27.084
839.5	26.941
840	26.796
840.5	26.651
841	26.512
841.5	26.392
842	26.31
842.5	26.283
843	26.321
843.5	26.419
844	26.57
844.5	26.753
845	26.951
845.5	27.15
846	27.344
846.5	27.532
847	27.717
847.5	27.906
848	28.11
848.5	28.329
849	28.571
849.5	28.84
850	29.13
850.5	29.428
851	29.721
851.5	29.988
852	30.219
852.5	30.415
853	30.59
853.5	30.762
854	30.942
854.5	31.136
855	31.335
855.5	31.522
856	31.685
856.5	31.82
857	31.934
857.5	32.032
858	32.11
858.5	32.157
859	32.153
859.5	32.085
860	31.957
860.5	31.777
861	31.564
861.5	31.329
862	31.077
862.5	30.807
863	30.514
863.5	30.196
864	29.852
864.5	29.478
865	29.077
865.5	28.648
866	28.199
866.5	27.746
867	27.311
867.5	26.897
868	26.519
868.5	26.178
869	25.867
869.5	25.575
870	25.295
870.5	25.023
871	24.768
871.5	24.542
872	24.361
872.5	24.236
873	24.16
873.5	24.111
874	24.068
874.5	24.003
875	23.903
875.5	23.768
876	23.605
876.5	23.42
877	23.208
877.5	22.954
878	22.646
878.5	22.286
879	21.885
879.5	21.468
880	21.053
880.5	20.644
881	20.24
881.5	19.834
882	19.42
882.5	19.002
883	18.59
883.5	18.196
884	17.82
884.5	17.47
885	17.151
885.5	16.861
886	16.616
886.5	16.415
887	16.26
887.5	16.143
888	16.08
888.5	16.071
889	16.115
889.5	16.22
890	16.386
890.5	16.605
891	16.866
891.5	17.153
892	17.453
892.5	17.75
893	18.029
893.5	18.282
894	18.501
894.5	18.688
895	18.849
895.5	18.989
896	19.115
896.5	19.232
897	19.341
897.5	19.449
898	19.564
898.5	19.692
899	19.835
899.5	19.989
900	20.145
900.5	20.297
901	20.444
901.5	20.595
902	20.76
902.5	20.949
903	21.162
903.5	21.394
904	21.634
904.5	21.881
905	22.127
905.5	22.367
906	22.604
906.5	22.835
907	23.069
907.5	23.319
908	23.602
908.5	23.921
909	24.272
909.5	24.648
910	25.026
910.5	25.39
911	25.731
911.5	26.046
912	26.333
912.5	26.585
913	26.795
913.5	26.958
914	27.078
914.5	27.166
915	27.238
915.5	27.304
916	27.373
916.5	27.44
917	27.506
917.5	27.571
918	27.636
918.5	27.699
919	27.755
919.5	27.799
920	27.828
920.5	27.839
921	27.837
921.5	27.823
922	27.8
922.5	27.773
923	27.748
923.5	27.738
924	27.757
924.5	27.815
925	27.908
925.5	28.024
926	28.147
926.5	28.263
927	28.369
927.5	28.47
928	28.573
928.5	28.673
929	28.767
929.5	28.839
930	28.878
930.5	28.878
931	28.841
931.5	28.77
932	28.667
932.5	28.532
933	28.362
933.5	28.162
934	27.944
934.5	27.724
935	27.516
935.5	27.332
936	27.172
936.5	27.032
937	26.914
937.5	26.814
938	26.731
938.5	26.66
939	26.597
939.5	26.535
940	26.468
940.5	26.39
941	26.304
941.5	26.213
942	26.129
942.5	26.055
943	25.996
943.5	25.95
944	25.914
944.5	25.878
945	25.837
945.5	25.78
946	25.709
946.5	25.628
947	25.54
947.5	25.445
948	25.342
948.5	25.23
949	25.109
949.5	24.986
950	24.866
950.5	24.752
951	24.643
951.5	24.531
952	24.411
952.5	24.28
953	24.143
953.5	24.008
954	23.884
954.5	23.774
955	23.677
955.5	23.585
956	23.488
956.5	23.383
957	23.257
957.5	23.101
958	22.908
958.5	22.668
959	22.371
959.5	22.015
960	21.6
960.5	21.137
961	20.639
961.5	20.124
962	19.606
962.5	19.078
963	18.533
963.5	17.948
964	17.336
964.5	16.691
965	16.034
965.5	15.377
966	14.744
966.5	14.139
967	13.559
967.5	12.998
968	12.455
968.5	11.927
969	11.407
969.5	10.896
970	10.382
970.5	9.8619
971	9.3401
971.5	8.8296
972	8.3433
972.5	7.8887
973	7.4653
973.5	7.0687
974	6.6974
974.5	6.357
975	6.0542
975.5	5.7968
976	5.5842
976.5	5.4081
977	5.2573
977.5	5.126
978	5.013
978.5	4.9214
979	4.8577
979.5	4.8292
980	4.8451
980.5	4.9129
981	5.0344
981.5	5.2014
982	5.3943
982.5	5.5876
983	5.7627
983.5	5.9155
984	6.0663
984.5	6.2118
985	6.3721
985.5	6.5443
986	6.7283
986.5	6.9057
987	7.064
987.5	7.1888
988	7.2598
988.5	7.2762
989	7.2264
989.5	7.12
990	6.9731
990.5	6.814
991	6.6677
991.5	6.5408
992	6.4411
992.5	6.3729
993	6.3408
993.5	6.35
994	6.3979
994.5	6.4701
995	6.5447
995.5	6.605
996	6.6416
996.5	6.6562
997	6.6554
997.5	6.6403
998	6.5993
998.5	6.5203
999	6.3974
999.5	6.2351
1000	6.05
1000.5	5.866
1001	5.68
1001.5	5.4969
1002	5.3029
1002.5	5.0814
1003	4.829
1003.5	4.542
1004	4.2276
1004.5	3.8917
1005	3.5402
1005.5	3.1761
1006	2.8035
1006.5	2.4283
1007	2.0646
1007.5	1.7321
1008	1.433
1008.5	1.1941
1009	1.013
1009.5	0.90301
1010	0.87149
1010.5	0.92365
1011	1.0602
1011.5	1.2684
1012	1.5343
1012.5	1.8271
1013	2.1141
1013.5	2.3683
1014	2.5732
1014.5	2.7242
1015	2.8279
1015.5	2.8942
1016	2.9303
1016.5	2.936
1017	2.9029
1017.5	2.8177
1018	2.6711
1018.5	2.4954
1019	2.3069
1019.5	2.0872
1020	1.8656
1020.5	1.6699
1021	1.4844
1021.5	1.302
1022	1.1023
1022.5	0.88111
1023	0.64916
1023.5	0.40855
1024	0.1716
1024.5	0
1025	0
1025.5	0
1026	0
1026.5	0
1027	0
1027.5	0
1028	0
1028.5	0
1029	0
1029.5	0
1030	0.0456
1030.5	0.16963
1031	0.27398
1031.5	0.33758
1032	0.34145
1032.5	0.29465
1033	0.21368
1033.5	0.12434
1034	0.18643
1034.5	0.27456
1035	0.38355
1035.5	0.51118
1036	0.65494
1036.5	0.80948
1037	0.97355
1037.5	1.1392
1038	1.3045
1038.5	1.4731
1039	1.6554
1039.5	1.861
1040	2.0909
1040.5	2.3364
1041	2.5776
1041.5	2.8098
1042	3.026
1042.5	3.2317
1043	3.4327
1043.5	3.6293
1044	3.8119
1044.5	3.9695
1045	4.0901
1045.5	4.1763
1046	4.2354
1046.5	4.287
1047	4.35
1047.5	4.4357
1048	4.5416
1048.5	4.6497
1049	4.7437
1049.5	4.7971
1050	4.7995
1050.5	4.7607
1051	4.6944
1051.5	4.6342
1052	4.6058
1052.5	4.6272
1053	4.7082
1053.5	4.8521
1054	5.0622
1054.5	5.3373
1055	5.6782
1055.5	6.0795
1056	6.5391
1056.5	7.0543
1057	7.6324
1057.5	8.2715
1058	8.9711
1058.5	9.7199
1059	10.501
1059.5	11.293
1060	12.074
1060.5	12.824
1061	13.525
1061.5	14.177
1062	14.773
1062.5	15.317
1063	15.814
1063.5	16.255
1064	16.633
1064.5	16.94
1065	17.165
1065.5	17.315
1066	17.404
1066.5	17.453
1067	17.464
1067.5	17.443
1068	17.389
1068.5	17.293
1069	17.153
1069.5	16.965
1070	16.725
1070.5	16.449
1071	16.136
1071.5	15.795
1072	15.444
1072.5	15.097
1073	14.772
1073.5	14.479
1074	14.228
1074.5	14.029
1075	13.894
1075.5	13.829
1076	13.838
1076.5	13.908
1077	14.025
1077.5	14.168
1078	14.321
1078.5	14.471
1079	14.615
1079.5	14.744
1080	14.854
1080.5	14.939
1081	15.001
1081.5	15.05
1082	15.089
1082.5	15.13
1083	15.17
1083.5	15.194
1084	15.198
1084.5	15.185
1085	15.171
1085.5	15.187
1086	15.257
1086.5	15.391
1087	15.57
1087.5	15.785
1088	16.007
1088.5	16.217
1089	16.406
1089.5	16.573
1090	16.726
1090.5	16.894
1091	17.092
1091.5	17.354
1092	17.701
1092.5	18.14
1093	18.67
1093.5	19.284
1094	19.98
1094.5	20.756
1095	21.605
1095.5	22.519
1096	23.478
1096.5	24.466
1097	25.473
1097.5	26.501
1098	27.549
1098.5	28.623
1099	29.719
1099.5	30.817
1100	31.895
1100.5	32.925
1101	33.883
1101.5	34.76
1102	35.555
1102.5	36.273
1103	36.92
1103.5	37.501
1104	38.021
1104.5	38.49
1105	38.923
1105.5	39.329
1106	39.706
1106.5	40.043
1107	40.325
1107.5	40.54
1108	40.699
1108.5	40.828
1109	40.963
1109.5	41.142
1110	41.393
1110.5	41.727
1111	42.148
1111.5	42.647
1112	43.218
1112.5	43.856
1113	44.562
1113.5	45.347
1114	46.206
1114.5	47.137
1115	48.13
1115.5	49.161
1116	50.211
1116.5	51.273
1117	52.351
1117.5	53.453
1118	54.58
1118.5	55.722
1119	56.859
1119.5	57.968
1120	59.029
1120.5	60.031
1121	60.968
1121.5	61.84
1122	62.646
1122.5	63.387
1123	64.063
1123.5	64.677
1124	65.23
1124.5	65.724
1125	66.15
1125.5	66.491
1126	66.719
1126.5	66.82
1127	66.785
1127.5	66.632
1128	66.401
1128.5	66.134
1129	65.864
1129.5	65.598
1130	65.332
1130.5	65.056
1131	64.773
1131.5	64.493
1132	64.23
1132.5	63.988
1133	63.751
1133.5	63.505
1134	63.222
1134.5	62.901
1135	62.55
1135.5	62.181
1136	61.818
1136.5	61.483
1137	61.195
1137.5	60.977
1138	60.826
1138.5	60.753
1139	60.747
1139.5	60.78
1140	60.837
1140.5	60.895
1141	60.954
1141.5	61.032
1142	61.138
1142.5	61.288
1143	61.468
1143.5	61.665
1144	61.85
1144.5	62.013
1145	62.143
1145.5	62.249
1146	62.337
1146.5	62.419
1147	62.497
1147.5	62.585
1148	62.69
1148.5	62.809
1149	62.931
1149.5	63.039
1150	63.127
1150.5	63.194
1151	63.248
1151.5	63.286
1152	63.293
1152.5	63.243
1153	63.128
1153.5	62.951
1154	62.725
1154.5	62.476
1155	62.219
1155.5	61.955
1156	61.683
1156.5	61.412
1157	61.157
1157.5	60.931
1158	60.722
1158.5	60.527
1159	60.31
1159.5	60.061
1160	59.798
1160.5	59.547
1161	59.351
1161.5	59.233
1162	59.191
1162.5	59.22
1163	59.305
1163.5	59.451
1164	59.66
1164.5	59.945
1165	60.306
1165.5	60.748
1166	61.248
1166.5	61.788
1167	62.34
1167.5	62.877
1168	63.375
1168.5	63.825
1169	64.229
1169.5	64.594
1170	64.939
1170.5	65.27
1171	65.584
1171.5	65.864
1172	66.091
1172.5	66.247
1173	66.32
1173.5	66.298
1174	66.179
1174.5	65.964
1175	65.658
1175.5	65.274
1176	64.825
1176.5	64.317
1177	63.75
1177.5	63.111
1178	62.386
1178.5	61.558
1179	60.625
1179.5	59.596
1180	58.496
1180.5	57.362
1181	56.233
1181.5	55.127
1182	54.056
1182.5	53.008
1183	51.988
1183.5	50.992
1184	50.036
1184.5	49.143
1185	48.329
1185.5	47.591
1186	46.914
1186.5	46.281
1187	45.684
1187.5	45.136
1188	44.659
1188.5	44.27
1189	43.974
1189.5	43.758
1190	43.617
1190.5	43.539
1191	43.518
1191.5	43.549
1192	43.619
1192.5	43.711
1193	43.803
1193.5	43.882
1194	43.939
1194.5	43.976
1195	43.991
1195.5	43.98
1196	43.928
1196.5	43.82
1197	43.641
1197.5	43.376
1198	43.011
1198.5	42.538
1199	41.965
1199.5	41.31
1200	40.611
1200.5	39.906
1201	39.21
1201.5	38.52
1202	37.83
1202.5	37.123
1203	36.41
1203.5	35.697
1204	35.016
1204.5	34.382
1205	33.805
1205.5	33.283
1206	32.824
1206.5	32.439
1207	32.136
1207.5	31.909
1208	31.738
1208.5	31.601
1209	31.488
1209.5	31.404
1210	31.368
1210.5	31.391
1211	31.466
1211.5	31.565
1212	31.658
1212.5	31.718
1213	31.737
1213.5	31.727
1214	31.699
1214.5	31.664
1215	31.622
1215.5	31.567
1216	31.497
1216.5	31.418
1217	31.329
1217.5	31.241
1218	31.153
1218.5	31.062
1219	30.964
1219.5	30.862
1220	30.763
1220.5	30.669
1221	30.573
1221.5	30.471
1222	30.353
1222.5	30.22
1223	30.082
1223.5	29.959
1224	29.863
1224.5	29.805
1225	29.788
1225.5	29.804
1226	29.841
1226.5	29.893
1227	29.941
1227.5	29.977
1228	30.001
1228.5	30.023
1229	30.049
1229.5	30.081
1230	30.108
1230.5	30.118
1231	30.105
1231.5	30.074
1232	30.045
1232.5	30.032
1233	30.044
1233.5	30.072
1234	30.107
1234.5	30.148
1235	30.22
1235.5	30.33
1236	30.514
1236.5	30.778
1237	31.098
1237.5	31.442
1238	31.779
1238.5	32.082
1239	32.35
1239.5	32.604
1240	32.851
1240.5	33.105
1241	33.367
1241.5	33.629
1242	33.884
1242.5	34.128
1243	34.361
1243.5	34.582
1244	34.785
1244.5	34.964
1245	35.104
1245.5	35.195
1246	35.235
1246.5	35.241
1247	35.216
1247.5	35.181
1248	35.142
1248.5	35.089
1249	35.009
1249.5	34.888
1250	34.727
1250.5	34.536
1251	34.331
1251.5	34.132
1252	33.942
1252.5	33.77
1253	33.616
1253.5	33.481
1254	33.365
1254.5	33.258
1255	33.167
1255.5	33.061
1256	32.948
1256.5	32.822
1257	32.673
1257.5	32.514
1258	32.36
1258.5	32.209
1259	32.073
1259.5	31.962
1260	31.875
1260.5	31.819
1261	31.775
1261.5	31.717
1262	31.63
1262.5	31.501
1263	31.334
1263.5	31.149
1264	30.968
1264.5	30.805
1265	30.663
1265.5	30.534
1266	30.418
1266.5	30.307
1267	30.2
1267.5	30.111
1268	30.031
1268.5	29.965
1269	29.909
1269.5	29.851
1270	29.797
1270.5	29.743
1271	29.701
1271.5	29.689
1272	29.705
1272.5	29.76
1273	29.839
1273.5	29.918
1274	29.977
1274.5	30.003
1275	30.002
1275.5	29.973
1276	29.934
1276.5	29.896
1277	29.851
1277.5	29.805
1278	29.747
1278.5	29.687
1279	29.634
1279.5	29.6
1280	29.578
1280.5	29.548
1281	29.481
1281.5	29.369
1282	29.244
1282.5	29.117
1283	29.038
1283.5	29.013
1284	29.01
1284.5	29.006
1285	28.963
1285.5	28.88
1286	28.784
1286.5	28.697
1287	28.648
1287.5	28.647
1288	28.691
1288.5	28.784
1289	28.914
1289.5	29.069
1290	29.238
1290.5	29.415
1291	29.61
1291.5	29.848
1292	30.118
1292.5	30.444
1293	30.802
1293.5	31.158
1294	31.483
1294.5	31.764
1295	32.006
1295.5	32.227
1296	32.439
1296.5	32.643
1297	32.829
1297.5	32.987
1298	33.114
1298.5	33.208
1299	33.263
1299.5	33.278
1300	33.24
1300.5	33.149
1301	33.018
1301.5	32.859
1302	32.675
1302.5	32.432
1303	32.111
1303.5	31.669
1304	31.102
1304.5	30.446
1305	29.73
1305.5	29.008
1306	28.299
1306.5	27.6
1307	26.897
1307.5	26.176
1308	25.434
1308.5	24.674
1309	23.903
1309.5	23.125
1310	22.348
1310.5	21.588
1311	20.849
1311.5	20.145
1312	19.463
1312.5	18.812
1313	18.171
1313.5	17.533
1314	16.911
1314.5	16.321
1315	15.773
1315.5	15.255
1316	14.752
1316.5	14.239
1317	13.721
1317.5	13.232
1318	12.781
1318.5	12.398
1319	12.073
1319.5	11.778
1320	11.505
1320.5	11.239
1321	10.986
1321.5	10.751
1322	10.531
1322.5	10.323
1323	10.127
1323.5	9.952
1324	9.8082
1324.5	9.7036
1325	9.6346
1325.5	9.5972
1326	9.5758
1326.5	9.5719
1327	9.5853
1327.5	9.6164
1328	9.6666
1328.5	9.7309
1329	9.7976
1329.5	9.8555
1330	9.8844
1330.5	9.8755
1331	9.8369
1331.5	9.7839
1332	9.733
1332.5	9.6866
1333	9.6318
1333.5	9.5657
1334	9.4851
1334.5	9.391
1335	9.2964
1335.5	9.202
1336	9.1086
1336.5	9.0098
1337	8.9113
1337.5	8.8123
1338	8.6862
1338.5	8.5316
1339	8.3226
1339.5	8.0606
1340	7.7736
1340.5	7.4786
1341	7.1969
1341.5	6.9272
1342	6.658
1342.5	6.3802
1343	6.0899
1343.5	5.7864
1344	5.4734
1344.5	5.1568
1345	4.8441
1345.5	4.562
1346	4.3101
1346.5	4.1024
1347	3.9188
1347.5	3.733
1348	3.5305
1348.5	3.3052
1349	3.0686
1349.5	2.8402
1350	2.6308
1350.5	2.4558
1351	2.3196
1351.5	2.219
1352	2.1476
1352.5	2.0932
1353	2.0553
1353.5	2.0501
1354	2.0868
1354.5	2.1739
1355	2.3083
1355.5	2.4608
1356	2.6061
1356.5	2.7306
1357	2.8386
1357.5	2.9527
1358	3.0797
1358.5	3.2378
1359	3.4312
1359.5	3.6538
1360	3.8954
1360.5	4.1438
1361	4.3835
1361.5	4.6067
1362	4.8077
1362.5	4.9874
1363	5.1512
1363.5	5.3101
1364	5.4693
1364.5	5.6358
1365	5.8164
1365.5	6.0141
1366	6.221
1366.5	6.4434
1367	6.6667
1367.5	6.8771
1368	7.063
1368.5	7.2122
1369	7.3294
1369.5	7.4277
1370	7.5108
1370.5	7.584
1371	7.6319
1371.5	7.6495
1372	7.6234
1372.5	7.5608
1373	7.4815
1373.5	7.4004
1374	7.3212
1374.5	7.2428
1375	7.1516
1375.5	7.0453
1376	6.9364
1376.5	6.8517
1377	6.8008
1377.5	6.7948
1378	6.8137
1378.5	6.8545
1379	6.8876
1379.5	6.9023
1380	6.8997
1380.5	6.8885
1381	6.8779
1381.5	6.8753
1382	6.8826
1382.5	6.909
1383	6.9639
1383.5	7.0538
1384	7.1735
1384.5	7.3217
1385	7.4969
1385.5	7.7117
1386	7.9865
1386.5	8.345
1387	8.7726
1387.5	9.2579
1388	9.7781
1388.5	10.331
1389	10.918
1389.5	11.542
1390	12.193
1390.5	12.859
1391	13.528
1391.5	14.21
1392	14.918
1392.5	15.673
1393	16.468
1393.5	17.274
1394	18.052
1394.5	18.787
1395	19.467
1395.5	20.102
1396	20.703
1396.5	21.269
1397	21.788
1397.5	22.261
1398	22.683
1398.5	23.064
1399	23.41
1399.5	23.74
1400	24.059
1400.5	24.373
1401	24.68
1401.5	24.968
1402	25.229
1402.5	25.461
1403	25.667
1403.5	25.855
1404	26.035
1404.5	26.217
1405	26.413
1405.5	26.632
1406	26.881
1406.5	27.156
1407	27.429
1407.5	27.702
1408	27.963
1408.5	28.217
1409	28.465
1409.5	28.715
1410	28.966
1410.5	29.205
1411	29.431
1411.5	29.625
1412	29.772
1412.5	29.862
1413	29.888
1413.5	29.856
1414	29.777
1414.5	29.665
1415	29.521
1415.5	29.355
1416	29.177
1416.5	29.007
1417	28.869
1417.5	28.779
1418	28.749
1418.5	28.786
1419	28.897
1419.5	29.09
1420	29.366
1420.5	29.72
1421	30.131
1421.5	30.574
1422	31.041
1422.5	31.541
1423	32.094
1423.5	32.726
1424	33.444
1424.5	34.247
1425	35.123
1425.5	36.044
1426	37.008
1426.5	37.994
1427	39.003
1427.5	40.039
1428	41.1
1428.5	42.173
1429	43.234
1429.5	44.258
1430	45.224
1430.5	46.121
1431	46.954
1431.5	47.721
1432	48.436
1432.5	49.108
1433	49.738
1433.5	50.32
1434	50.837
1434.5	51.275
1435	51.627
1435.5	51.902
1436	52.111
1436.5	52.256
1437	52.327
1437.5	52.323
1438	52.237
1438.5	52.09
1439	51.894
1439.5	51.659
1440	51.375
1440.5	51.032
1441	50.628
1441.5	50.188
1442	49.749
1442.5	49.351
1443	49.007
1443.5	48.705
1444	48.419
1444.5	48.127
1445	47.819
1445.5	47.5
1446	47.198
1446.5	46.92
1447	46.684
1447.5	46.49
1448	46.335
1448.5	46.211
1449	46.119
1449.5	46.061
1450	46.043
1450.5	46.065
1451	46.13
1451.5	46.24
1452	46.4
1452.5	46.609
1453	46.859
1453.5	47.137
1454	47.435
1454.5	47.757
1455	48.107
1455.5	48.483
1456	48.871
1456.5	49.252
1457	49.622
1457.5	49.998
1458	50.393
1458.5	50.826
1459	51.295
1459.5	51.793
1460	52.309
1460.5	52.848
1461	53.408
1461.5	53.992
1462	54.586
1462.5	55.18
1463	55.765
1463.5	56.346
1464	56.931
1464.5	57.523
1465	58.124
1465.5	58.732
1466	59.355
1466.5	60.011
1467	60.724
1467.5	61.502
1468	62.341
1468.5	63.222
1469	64.125
1469.5	65.044
1470	65.997
1470.5	66.983
1471	68.023
1471.5	69.111
1472	70.223
1472.5	71.337
1473	72.436
1473.5	73.519
1474	74.59
1474.5	75.644
1475	76.662
1475.5	77.626
1476	78.52
1476.5	79.345
1477	80.112
1477.5	80.829
1478	81.493
1478.5	82.089
1479	82.594
1479.5	82.977
1480	83.211
1480.5	83.29
1481	83.215
1481.5	83.013
1482	82.721
1482.5	82.373
1483	81.98
1483.5	81.525
1484	80.985
1484.5	80.361
1485	79.669
1485.5	78.949
1486	78.236
1486.5	77.548
1487	76.871
1487.5	76.187
1488	75.496
1488.5	74.814
1489	74.181
1489.5	73.626
1490	73.154
1490.5	72.747
1491	72.395
1491.5	72.073
1492	71.785
1492.5	71.546
1493	71.372
1493.5	71.274
1494	71.255
1494.5	71.309
1495	71.429
1495.5	71.6
1496	71.814
1496.5	72.055
1497	72.316
1497.5	72.593
1498	72.88
1498.5	73.17
1499	73.451
1499.5	73.715
1500	73.96
1500.5	74.208
1501	74.452
1501.5	74.691
1502	74.92
1502.5	75.153
1503	75.37
1503.5	75.606
1504	75.868
1504.5	76.152
1505	76.403
1505.5	76.625
1506	76.771
1506.5	76.852
1507	76.898
1507.5	76.947
1508	77.031
1508.5	77.151
1509	77.29
1509.5	77.421
1510	77.529
1510.5	77.606
1511	77.658
1511.5	77.705
1512	77.769
1512.5	77.864
1513	77.987
1513.5	78.124
1514	78.258
1514.5	78.38
1515	78.5
1515.5	78.628
1516	78.787
1516.5	78.967
1517	79.171
1517.5	79.38
1518	79.592
1518.5	79.832
1519	80.089
1519.5	80.377
1520	80.682
1520.5	80.986
1521	81.278
1521.5	81.573
1522	81.904
1522.5	82.298
1523	82.739
1523.5	83.222
1524	83.686
1524.5	84.089
1525	84.414
1525.5	84.703
1526	84.951
1526.5	85.211
1527	85.503
1527.5	85.816
1528	86.134
1528.5	86.428
1529	86.682
1529.5	86.897
1530	87.091
1530.5	87.278
1531	87.471
1531.5	87.666
1532	87.848
1532.5	88.003
1533	88.117
1533.5	88.19
1534	88.231
1534.5	88.25
1535	88.257
1535.5	88.245
1536	88.208
1536.5	88.127
1537	87.996
1537.5	87.823
1538	87.626
1538.5	87.421
1539	87.196
1539.5	86.959
1540	86.681
1540.5	86.354
1541	85.998
1541.5	85.635
1542	85.3
1542.5	85.016
1543	84.798
1543.5	84.636
1544	84.524
1544.5	84.451
1545	84.404
1545.5	84.389
1546	84.421
1546.5	84.533
1547	84.74
1547.5	85.048
1548	85.449
1548.5	85.921
1549	86.448
1549.5	87.019
1550	87.623
1550.5	88.239
1551	88.844
1551.5	89.415
1552	89.941
1552.5	90.422
1553	90.858
1553.5	91.244
1554	91.576
1554.5	91.847
1555	92.055
1555.5	92.198
1556	92.28
1556.5	92.306
1557	92.286
1557.5	92.241
1558	92.172
1558.5	92.084
1559	91.977
1559.5	91.835
1560	91.654
1560.5	91.447
1561	91.243
1561.5	91.083
1562	90.989
1562.5	90.964
1563	90.993
1563.5	91.046
1564	91.12
1564.5	91.234
1565	91.4
1565.5	91.645
1566	91.968
1566.5	92.355
1567	92.787
1567.5	93.268
1568	93.79
1568.5	94.353
1569	94.937
1569.5	95.513
1570	96.066
1570.5	96.592
1571	97.098
1571.5	97.586
1572	98.043
1572.5	98.446
1573	98.783
1573.5	99.055
1574	99.273
1574.5	99.452
1575	99.6
1575.5	99.725
1576	99.832
1576.5	99.922
1577	99.986
1577.5	100
1578	99.939
1578.5	99.784
1579	99.533
1579.5	99.189
1580	98.774
1580.5	98.306
1581	97.8
1581.5	97.265
1582	96.7
1582.5	96.11
1583	95.494
1583.5	94.851
1584	94.184
1584.5	93.486
1585	92.744
1585.5	91.96
1586	91.138
1586.5	90.301
1587	89.47
1587.5	88.659
1588	87.86
1588.5	87.067
1589	86.269
1589.5	85.479
1590	84.716
1590.5	83.992
1591	83.294
1591.5	82.603
1592	81.902
1592.5	81.197
1593	80.516
1593.5	79.888
1594	79.324
1594.5	78.814
1595	78.335
1595.5	77.864
1596	77.394
1596.5	76.93
1597	76.478
1597.5	76.038
1598	75.6
1598.5	75.15
1599	74.68
1599.5	74.199
1600	73.721
1600.5	73.262
1601	72.826
1601.5	72.401
1602	71.959
1602.5	71.483
1603	70.955
1603.5	70.386
1604	69.789
1604.5	69.205
1605	68.663
1605.5	68.172
1606	67.725
1606.5	67.298
1607	66.877
1607.5	66.458
1608	66.051
1608.5	65.665
1609	65.296
1609.5	64.93
1610	64.552
1610.5	64.153
1611	63.734
1611.5	63.309
1612	62.895
1612.5	62.502
1613	62.133
1613.5	61.773
1614	61.389
1614.5	60.959
1615	60.471
1615.5	59.935
1616	59.376
1616.5	58.809
1617	58.23
1617.5	57.623
1618	56.972
1618.5	56.271
1619	55.527
1619.5	54.747
1620	53.939
1620.5	53.102
1621	52.241
1621.5	51.365
1622	50.485
1622.5	49.627
1623	48.811
1623.5	48.059
1624	47.378
1624.5	46.771
1625	46.204
1625.5	45.646
1626	45.077
1626.5	44.498
1627	43.926
1627.5	43.381
1628	42.876
1628.5	42.414
1629	41.99
1629.5	41.599
1630	41.232
1630.5	40.875
1631	40.52
1631.5	40.158
1632	39.783
1632.5	39.388
1633	38.961
1633.5	38.497
1634	37.996
1634.5	37.472
1635	36.937
1635.5	36.395
1636	35.839
1636.5	35.264
1637	34.674
1637.5	34.079
1638	33.485
1638.5	32.887
1639	32.268
1639.5	31.621
1640	30.959
1640.5	30.301
1641	29.666
1641.5	29.058
1642	28.467
1642.5	27.883
1643	27.301
1643.5	26.723
1644	26.153
1644.5	25.588
1645	25.024
1645.5	24.461
1646	23.898
1646.5	23.344
1647	22.811
1647.5	22.309
1648	21.841
1648.5	21.397
1649	20.952
1649.5	20.483
1650	19.973
1650.5	19.418
1651	18.824
1651.5	18.197
1652	17.546
1652.5	16.884
1653	16.23
1653.5	15.598
1654	14.994
1654.5	14.406
1655	13.82
1655.5	13.224
1656	12.616
1656.5	12.007
1657	11.405
1657.5	10.812
1658	10.227
1658.5	9.6433
1659	9.0575
1659.5	8.4705
1660	7.8817
1660.5	7.3032
1661	6.7374
1661.5	6.1899
1662	5.6584
1662.5	5.139
1663	4.632
1663.5	4.144
1664	3.685
1664.5	3.2604
1665	2.8629
1665.5	2.4774
1666	2.0888
1666.5	1.7075
1667	1.3354
1667.5	0.97859
1668	0.64333
1668.5	0.31553
1669	0.00046726
1669.5	0
1670	0
1670.5	0
1671	0
1671.5	0
1672	0
1672.5	0
1673	0
1673.5	0
1674	0.017891
1674.5	0.016238
1675	0.0017968
1675.5	0
1676	0
1676.5	0
1677	0
1677.5	0
1678	0.019205
1678.5	0.037889
1679	0.027547
1679.5	0
1680	0
1680.5	0
1681	0
1681.5	0
1682	0.0015191
1682.5	0.0081348
1683	0.036678
1683.5	0.071059
1684	0.11162
1684.5	0.1552
1685	0.17881
1685.5	0.16942
1686	0.12187
1686.5	0.061072
1687	0
1687.5	0
1688	0
1688.5	0
1689	0
1689.5	0.0016643
1690	0
1690.5	0
1691	0
1691.5	0
1692	0.0147
1692.5	0.04878
1693	0.055363
1693.5	0.028367
1694	0
1694.5	0
1695	0
1695.5	0
1696	0.0061717
1696.5	0.047986
1697	0.11648
1697.5	0.17555
1698	0.23335
1698.5	0.29765
1699	0.38058
1699.5	0.49694
1700	0.65051
1700.5	0.82246
1701	0.99274
1701.5	1.1365
1702	1.2458
1702.5	1.3387
1703	1.4332
1703.5	1.5254
1704	1.6055
1704.5	1.6598
1705	1.6857
1705.5	1.6995
1706	1.7109
1706.5	1.7238
1707	1.7339
1707.5	1.7357
1708	1.7405
1708.5	1.7528
1709	1.7872
1709.5	1.842
1710	1.9112
1710.5	1.9827
1711	2.0467
1711.5	2.0918
1712	2.1157
1712.5	2.117
1713	2.0997
1713.5	2.0828
1714	2.0812
1714.5	2.1041
1715	2.1438
1715.5	2.1959
1716	2.2516
1716.5	2.3115
1717	2.3813
1717.5	2.4719
1718	2.5917
1718.5	2.7396
1719	2.9
1719.5	3.0493
1720	3.1732
1720.5	3.2634
1721	3.3306
1721.5	3.3969
1722	3.4672
1722.5	3.5457
1723	3.621
1723.5	3.6847
1724	3.7433
1724.5	3.7978
1725	3.8589
1725.5	3.922
1726	3.9777
1726.5	4.0177
1727	4.0467
1727.5	4.0722
1728	4.1013
1728.5	4.1247
1729	4.1416
1729.5	4.1412
1730	4.1235
1730.5	4.0901
1731	4.0401
1731.5	3.9704
1732	3.8843
1732.5	3.7835
1733	3.6836
1733.5	3.5937
1734	3.5186
1734.5	3.4571
1735	3.3996
1735.5	3.3415
1736	3.2757
1736.5	3.2024
1737	3.1219
1737.5	3.0365
1738	2.9418
1738.5	2.8254
1739	2.6908
1739.5	2.5484
1740	2.4144
1740.5	2.2912
1741	2.1774
1741.5	2.0683
1742	1.9581
1742.5	1.848
1743	1.7385
1743.5	1.6272
1744	1.5063
1744.5	1.3722
1745	1.2213
1745.5	1.0577
1746	0.89004
1746.5	0.72713
1747	0.57268
1747.5	0.42478
1748	0.28461
1748.5	0.15923
1749	0.057414
1749.5	0
1750	0
1750.5	0
1751	0
1751.5	0
1752	0
1752.5	0
1753	0
1753.5	0.020047
1754	0.062974
1754.5	0.10495
1755	0.15447
1755.5	0.19525
1756	0.22206
1756.5	0.22865
1757	0.22605
1757.5	0.22753
1758	0.25366
1758.5	0.30262
1759	0.35269
1759.5	0.38895
1760	0.38285
1760.5	0.34036
1761	0.28606
1761.5	0.24947
1762	0.24279
1762.5	0.25768
1763	0.27717
1763.5	0.27249
1764	0.24442
1764.5	0.18751
1765	0.11147
1765.5	0.039048
1766	0
1766.5	0
1767	0
1767.5	0
1768	0
1768.5	0
1769	0
1769.5	0.011846
1770	0.032245
1770.5	0.05038
1771	0.066333
1771.5	0.085216
1772	0.096107
1772.5	0.10062
1773	0.09964
1773.5	0.093614
1774	0.081504
1774.5	0.063016
1775	0.042277
1775.5	0.022682
1776	0.010628
1776.5	0.0030461
1777	0
